energy (eV), scatter (barn), absorb (barn), total (barn)
9.999999999999999e-06,19.46408,774.6586,794.12268
1.03125e-05,19.17077,762.8311,782.00187
1.0625e-05,18.89055,751.5293,770.41985
1.09375e-05,18.62248,740.7153,759.33778
1.125e-05,18.36571,730.3552,748.72091
1.15625e-05,18.11948,720.4179,738.53738
1.1874999999999999e-05,17.88307,710.8755,728.75857
1.21875e-05,17.65587,701.7025,719.35837
1.25e-05,17.43728,692.8757,710.31298
1.28125e-05,17.22678,684.3739,701.60068
1.3125e-05,17.02389,676.1775,693.20139
1.34375e-05,16.82815,668.2687,685.09685
1.3749999999999999e-05,16.63917,660.6311,677.27027
1.4375e-05,16.27997,646.1099,662.38987
1.5e-05,15.9436,632.5061,648.4497
1.5625e-05,15.62774,619.7269,635.35464
1.625e-05,15.3304,607.6922,623.0226
1.6875e-05,15.04986,596.3325,611.38236
1.7500000000000002e-05,14.78459,585.5869,600.37149
1.8125e-05,14.53326,575.402,589.93526
1.875e-05,14.2947,565.7307,580.0254
1.9375e-05,14.06787,556.5312,570.59907
1.9999999999999998e-05,13.85185,547.7664,561.61825
2.0937499999999997e-05,13.54629,535.3625,548.90879
2.1875e-05,13.26076,523.7648,537.02556
2.28125e-05,12.99318,512.8896,525.88278
2.3749999999999998e-05,12.74176,502.6649,515.40666
2.46875e-05,12.50494,493.0283,505.53324
2.5625e-05,12.28137,483.9254,496.20677
2.65625e-05,12.06988,475.3088,487.37868
2.7499999999999998e-05,11.86941,467.1367,479.00611
2.84375e-05,11.67906,459.3721,471.05116
2.9375000000000003e-05,11.498,451.9823,463.4803
3.0312499999999998e-05,11.32551,444.938,456.26351
3.125e-05,11.16095,438.2131,449.37405
3.2187499999999996e-05,11.00372,431.7842,442.78792
3.3125e-05,10.8533,425.6302,436.4835
3.40625e-05,10.70923,419.732,430.44123
3.5000000000000004e-05,10.57106,414.0725,424.64356
3.59375e-05,10.43842,408.6358,419.07422
3.6875e-05,10.31095,403.4079,413.71885
3.78125e-05,10.18832,398.3756,408.56392
3.875e-05,10.07023,393.527,403.59723
3.9687499999999996e-05,9.956429,388.8512,398.807629
4.0625000000000005e-05,9.846652,384.3383,394.184952
4.25e-05,9.638286,375.7647,385.402986
4.4375e-05,9.443502,367.7403,377.183802
4.625e-05,9.260904,360.209,369.469904
4.8125000000000004e-05,9.089289,353.1222,362.211489
5e-05,8.927614,346.4379,355.365514
5.15625e-05,8.799816,341.1484,349.948216
5.3125e-05,8.67782,336.0941,344.77192
5.46875e-05,8.561206,331.258,339.819206
5.625e-05,8.449596,326.6248,335.074396
5.78125e-05,8.342649,322.1807,330.523349
5.9375e-05,8.240052,317.9132,326.153252
6.0937500000000004e-05,8.141525,313.8109,321.952425
6.25e-05,8.046809,309.8635,317.910309
6.40625e-05,7.955669,306.0613,314.016969
6.562500000000001e-05,7.867893,302.3958,310.263693
6.71875e-05,7.783278,298.8589,306.642178
6.874999999999999e-05,7.701645,295.4432,303.144845
7.1875e-05,7.546667,288.9492,296.495867
7.5e-05,7.401763,282.8654,290.267163
7.8125e-05,7.265909,277.1503,284.416209
8.125000000000001e-05,7.138221,271.7683,278.906521
8.4375e-05,7.017928,266.688,273.705928
8.75e-05,6.904361,261.8824,268.786761
9.0625e-05,6.79693,257.3276,264.12453
9.375e-05,6.695114,253.0025,259.697614
9.6875e-05,6.598453,248.8884,255.486853
0.0001,6.506537,244.9686,251.475137
0.000103125,6.419001,241.2284,247.647401
0.00010625,6.335517,237.6545,243.990017
0.000109375,6.255791,234.2348,240.490591
0.0001125,6.179557,230.9586,237.138157
0.000115625,6.106575,227.8162,233.922775
0.00011875,6.036628,224.7986,230.835228
0.00012187500000000001,5.969517,221.8979,227.867417
0.000125,5.905063,219.1066,225.011663
0.000128125,5.843099,216.4181,222.261199
0.00013125000000000002,5.783476,213.8261,219.609576
0.000134375,5.726054,211.3252,217.051254
0.00013749999999999998,5.670706,208.9099,214.580606
0.00014375,5.565772,204.318,209.883772
0.00015,5.467837,200.016,205.483837
0.00015625,5.376185,195.9749,201.351085
0.00016250000000000002,5.290197,192.1692,197.459397
0.00016875,5.209334,188.5769,193.786234
0.000175,5.133127,185.1789,190.312027
0.00018125,5.061165,181.9581,187.019265
0.0001875,4.993084,178.8998,183.892884
0.00019375,4.928564,175.9907,180.919264
0.0002,4.867317,173.219,178.086317
0.00020937499999999998,4.781038,169.2966,174.077638
0.00021875,4.700806,165.629,170.329806
0.000228125,4.625981,162.19,166.815981
0.0002375,4.556012,158.9567,163.512712
0.00024687499999999997,4.490422,155.9093,160.399722
0.00025625,4.428797,153.0307,157.459497
0.000265625,4.370775,150.3059,154.676675
0.00027499999999999996,4.316037,147.7217,152.037737
0.000284375,4.264303,145.2663,149.530603
0.00029375,4.215324,142.9294,147.144724
0.00030312499999999995,4.168879,140.7018,144.870679
0.0003125,4.12477,138.5752,142.69997
0.000321875,4.082821,136.5422,140.625021
0.00033125,4.042871,134.5962,138.639071
0.000340625,4.004779,132.731,136.735779
0.00035,3.968413,130.9413,134.909713
0.000359375,3.933657,129.2221,133.155757
0.00036875,3.900403,127.5688,131.469203
0.00037812500000000004,3.868555,125.9775,129.846055
0.0003875,3.838022,124.4442,128.282222
0.000396875,3.808724,122.9656,126.774324
0.00040625000000000004,3.780585,121.5385,125.319085
0.000425,3.727518,118.8273,122.554818
0.00044374999999999997,3.678333,116.2898,119.968133
0.0004625,3.632614,113.9082,117.540814
0.00048124999999999996,3.590003,111.6671,115.257103
0.0005,3.55019,109.5534,113.10359
0.0005156249999999999,3.518955,107.8807,111.399655
0.00053125,3.489339,106.2824,109.771739
0.000546875,3.461218,104.7531,108.214318
0.0005625,3.434481,103.2879,106.722381
0.000578125,3.409029,101.8826,105.291629
0.0005937500000000001,3.38477,100.5331,103.91787
0.000609375,3.361623,99.23582,102.597443
0.000625,3.339512,97.98752,101.327032
0.000640625,3.31837,96.78518,100.10355
0.0006562499999999999,3.298135,95.62604,98.924175
0.0006718750000000001,3.27875,94.50756,97.78631
0.0006875,3.260162,93.42744,96.687602
0.00071875,3.22519,91.37384,94.59903
0.00075,3.192879,89.44997,92.642849
0.0007812499999999999,3.162938,87.64272,90.805658
0.0008125000000000001,3.135118,85.94075,89.075868
0.00084375,3.109202,84.33424,87.443442
0.000875,3.085005,82.81458,85.899585
0.00090625,3.06236,81.37422,84.43658
0.0009375,3.041127,80.00649,83.047617
0.00096875,3.021177,78.70548,81.726657
0.001,3.0024,77.46595,80.46835
0.0010312499999999998,2.984697,76.28319,79.267887
0.0010625,2.967978,75.15301,78.120988
0.00109375,2.952165,74.07161,77.023775
0.001125,2.937188,73.03559,75.972778
0.00115625,2.922982,72.04186,74.964842
0.0011875000000000002,2.909491,71.08762,73.997111
0.00121875,2.896662,70.17032,73.066982
0.00125,2.884449,69.28764,72.172089
0.00128125,2.872809,68.43745,71.310259
0.0013124999999999999,2.861703,67.6178,70.479503
0.0013437500000000001,2.851096,66.82692,69.678016
0.001375,2.840955,66.06316,68.904115
0.0014375,2.821955,64.61103,67.432985
0.0015,2.804495,63.25064,66.055135
0.0015624999999999999,2.788397,61.97271,64.761107
0.0016250000000000001,2.773509,60.76923,63.542739
0.0016875,2.759701,59.63325,62.392951
0.00175,2.746862,58.55868,61.305542
0.0018125,2.734893,57.54018,60.275073
0.001875,2.72371,56.57304,59.29675
0.0019375,2.71324,55.65308,58.36632
0.002,2.703415,54.77659,57.480005
0.00209375,2.689767,53.53619,56.225957
0.0021875,2.677278,52.37641,55.053688
0.0022812500000000003,2.665808,51.28887,53.954678
0.0023750000000000004,2.655237,50.26639,52.921627
0.00246875,2.645465,49.30271,51.948175
0.0025625,2.636404,48.39241,51.028814
0.0026562499999999998,2.62798,47.53074,50.15872
0.00275,2.620129,46.71352,49.333649
0.00284375,2.612794,45.93705,48.549844
0.0029375,2.605926,45.19805,47.803976
0.0030312499999999997,2.599481,44.49361,47.093091
0.0031249999999999997,2.593423,43.82111,46.414533
0.00321875,2.587718,43.17821,45.765928
0.0033125,2.582334,42.5628,45.145134
0.00340625,2.577247,41.97298,44.550227
0.0035,2.572433,41.40702,43.979453
0.0035937499999999997,2.567869,40.86334,43.431209
0.0036875,2.563537,40.34054,42.904077
0.0037812500000000003,2.55942,39.8373,42.39672
0.003875,2.555502,39.35244,41.907942
0.00396875,2.551769,38.88486,41.436629
0.0040625,2.548208,38.43356,40.981768
0.00425,2.541558,37.57619,40.117748
0.0044375,2.53547,36.77374,39.30921
0.004625,2.529876,36.02061,38.550486
0.0048125,2.524717,35.31192,37.836637
0.005,2.519945,34.64349,37.163435
0.00515625,2.516234,34.11454,36.630774
0.0053124999999999995,2.512741,33.6091,36.121841
0.00546875,2.509448,33.12549,35.634938
0.005625,2.506338,32.66216,35.168498
0.00578125,2.503396,32.21775,34.721146
0.0059375,2.500608,31.791,34.291608
0.00609375,2.497964,31.38077,33.878734
0.0062499999999999995,2.495452,30.98602,33.481472
0.00640625,2.493063,30.6058,33.098863
0.0065625,2.490787,30.23924,32.730027
0.00671875,2.488617,29.88554,32.374157
0.006875,2.486546,29.54397,32.030516
0.0071874999999999994,2.482674,28.89456,31.377234
0.0075,2.479125,28.28617,30.765295
0.0078125,2.47586,27.71465,30.19051
0.008125,2.472846,27.17643,29.649276
0.0084375,2.470056,26.6684,29.138456
0.00875,2.467465,26.18783,28.655295
0.0090625,2.465052,25.73234,28.197392
0.009375,2.462801,25.29982,27.762621
0.0096875,2.460695,24.8884,27.349095
0.01,2.458721,24.49642,26.955141
0.0103125,2.456866,24.1224,26.579266
0.010624999999999999,2.455121,23.765,26.220121
0.0109375,2.453475,23.42303,25.876505
0.01125,2.451921,23.09542,25.547341
0.0115625,2.450451,22.78118,25.231631
0.011875,2.449059,22.47942,24.928479
0.0121875,2.447738,22.18935,24.637088
0.012499999999999999,2.446483,21.91023,24.356713
0.0128125,2.445289,21.64138,24.086669
0.013125,2.444153,21.38219,23.826343
0.0134375,2.443069,21.1321,23.575169
0.01375,2.442034,20.89058,23.332614
0.014374999999999999,2.440101,20.43138,22.871481
0.015,2.438328,20.00119,22.439518
0.015625,2.436698,19.59707,22.033768
0.01625,2.435193,19.21648,21.651673
0.016875,2.4338,18.85724,21.29104
0.0175,2.432507,18.5174,20.949907
0.018125,2.431303,18.1953,20.626603
0.01875,2.430179,17.88944,20.319619
0.019375,2.429129,17.59849,20.027619
0.02,2.428144,17.32129,19.749434
0.0206625,2.427165,17.0413,19.468465
0.021325,2.426247,16.77447,19.200717
0.0219875,2.425385,16.51978,18.945165
0.02265,2.424573,16.27636,18.700933
0.0233125,2.423808,16.04339,18.467198
0.023975,2.423085,15.82016,18.243245
0.024637500000000003,2.422401,15.60599,18.028391
0.025300000000000003,2.421753,15.40029,17.822043
0.02645782,2.420699,15.05955,17.480249
0.02761563,2.419734,14.74048,17.160214
0.02877344,2.418847,14.44088,16.859727
0.02993125,2.418029,14.15885,16.576879
0.031089069999999996,2.417272,13.89273,16.310002
0.03224688,2.41657,13.64107,16.05764
0.03340469,2.415918,13.40261,15.818528
0.0345625,2.415309,13.17623,15.591539
0.03552735,2.414832,12.99608,15.410912
0.03649219,2.414381,12.82312,15.237501
0.037457040000000004,2.413953,12.65688,15.070833
0.03842188,2.413547,12.49694,14.910487
0.03938673,2.413161,12.3429,14.756061
0.040351569999999996,2.412794,12.19442,14.607214
0.041316410000000005,2.412444,12.05116,14.463604
0.04228125,2.41211,11.91283,14.32494
0.04421094,2.411487,11.64987,14.061357
0.046140629999999995,2.410916,11.40358,13.814496
0.04807032,2.410393,11.17226,13.582653
0.049999999999999996,2.40991,10.95448,13.36439
0.051562500000000004,2.409546,10.78718,13.196726
0.053125,2.409204,10.62731,13.036514
0.0546875,2.408882,10.47435,12.883232
0.056249999999999994,2.408578,10.32782,12.736398
0.0578125,2.408291,10.18728,12.595571
0.059375,2.40802,10.05233,12.46035
0.0609375,2.407762,9.922616,12.330378
0.0625,2.407519,9.797803,12.205322
0.0640625,2.407287,9.677592,12.084879
0.06562499999999999,2.407067,9.561705,11.968772
0.06718750000000001,2.406857,9.449886,11.856743
0.06875,2.406657,9.341901,11.748558
0.071875,2.406284,9.136585,11.542869
0.075,2.405944,8.944218,11.350162
0.078125,2.405632,8.763484,11.169116
0.08125,2.405345,8.593258,10.998603
0.084375,2.405081,8.432561,10.837642
0.0875,2.404836,8.280542,10.685378
0.09062500000000001,2.404609,8.13645,10.541059
0.09375,2.404399,7.999624,10.404023
0.096875,2.404202,7.869474,10.273676
0.09999999999999999,2.40402,7.745474,10.149494
0.10312500000000001,2.403849,7.627157,10.031006
0.10625,2.403688,7.5141,9.917788
0.109375,2.403538,7.405927,9.809465
0.11249999999999999,2.403398,7.302297,9.705695
0.115625,2.403265,7.202902,9.606167
0.11875,2.40314,7.107465,9.510605
0.121875,2.403023,7.015731,9.418754
0.125,2.402912,6.927471,9.330383
0.128125,2.402807,6.84247,9.245277
0.13124999999999998,2.402708,6.760532,9.16324
0.13437500000000002,2.402614,6.681476,9.08409
0.1375,2.402525,6.605132,9.007657
0.14375,2.402361,6.459971,8.862332
0.15,2.402212,6.323944,8.726156
0.15625,2.402078,6.196126,8.598204
0.1625,2.401957,6.07573,8.477687
0.16875,2.401847,5.962078,8.363925
0.175,2.401746,5.854574,8.25632
0.18125000000000002,2.401655,5.752692,8.154347
0.1875,2.401572,5.655966,8.057538
0.19375,2.401496,5.563978,7.965474
0.19999999999999998,2.401426,5.476346,7.877772
0.209375,2.401333,5.352321,7.753654
0.21875,2.401252,5.23632,7.637572
0.22812500000000002,2.401181,5.127513,7.528694
0.2375,2.401119,5.025198,7.426317
0.246875,2.401065,4.928764,7.329829
0.25625,2.401018,4.837673,7.238691
0.265625,2.400978,4.751449,7.152427
0.275,2.400943,4.669674,7.070617
0.284375,2.400913,4.591978,6.992891
0.29375,2.400888,4.518033,6.918921
0.30312500000000003,2.400868,4.447545,6.848413
0.3125,2.400851,4.380254,6.781105
0.32187499999999997,2.400838,4.315926,6.716764
0.33125,2.400828,4.254348,6.655176
0.340625,2.400821,4.19533,6.596151
0.35,2.400817,4.138701,6.539518
0.359375,2.400815,4.084304,6.485119
0.36875,2.400816,4.032,6.432816
0.378125,2.400819,3.981665,6.382484
0.3875,2.400824,3.933185,6.334009
0.39687500000000003,2.40083,3.886452,6.287282
0.40625,2.400839,3.841356,6.242195
0.425,2.40086,3.755661,6.156521
0.44375,2.400887,3.675389,6.076276
0.4625,2.400919,3.600026,6.000945
0.5,2.400996,3.462407,5.863403
0.53125,2.401071,3.359036,5.760107
0.5625,2.401153,3.264225,5.665378
0.59375,2.401243,3.176971,5.578214
0.625,2.401338,3.096349,5.497687
0.6875,2.401542,2.951931,5.353473
0.75,2.401761,2.825969,5.22773
0.8125,2.401991,2.714844,5.116835
0.875,2.40223,2.616126,5.018356
0.9375,2.402476,2.527421,4.929897
1.0,2.402729,2.446892,4.849621
1.0625,2.402986,2.373574,4.77656
1.125,2.403247,2.306457,4.709704
1.1875,2.403511,2.244713,4.648224
1.25,2.403778,2.18766,4.591438
1.375,2.40432,2.085454,4.489774
1.5,2.404869,1.996304,4.401173
1.625,2.405423,1.917644,4.323067
1.75,2.405982,1.847754,4.253736
1.875,2.406544,1.784954,4.191498
2.0,2.407109,1.727863,4.134972
2.1875,2.407961,1.651628,4.059589
2.375,2.408817,1.584679,3.993496
2.5625,2.409676,1.52521,3.934886
2.75,2.410537,1.472048,3.882585
2.9375,2.4114,1.424046,3.835446
3.125,2.412264,1.380296,3.79256
3.3125,2.41313,1.340311,3.753441
3.5,2.413997,1.303577,3.717574
3.875,2.415733,1.238262,3.653995
4.25,2.417471,1.181776,3.599247
4.625,2.41921,1.132289,3.551499
5.0,2.420951,1.088518,3.509469
5.3125,2.422401,1.055636,3.478037
5.625,2.423852,1.025468,3.44932
5.9375,2.425303,0.9977058,3.4230088
6.25,2.426754,0.972045,3.398799
6.875,2.429656,0.9260553,3.3557113
7.5,2.432557,0.8859159,3.3184729
8.125,2.435456,0.8504795,3.2859355
8.75,2.438355,0.8189357,3.2572907
9.375,2.441251,0.7905822,3.2318332
10.0,2.444146,0.7648682,3.2090142
10.625,2.44704,0.741444,3.188484
11.25,2.449931,0.7199872,3.1699182
11.875,2.452821,0.7002357,3.1530567
12.5,2.455708,0.6819739,3.1376819
13.75,2.461477,0.6492316,3.1107086
15.0,2.467238,0.6206396,3.0878776
16.25,2.472991,0.5953851,3.0683761
17.5,2.478735,0.5728847,3.0516197
18.75,2.48447,0.5526517,3.0371217
20.0,2.490197,0.5342956,3.0244926
21.875,2.498774,0.5097449,3.0085189
23.75,2.50733,0.4881397,2.9954697
25.625,2.515868,0.4689248,2.9847928
27.5,2.524387,0.4517011,2.9760881
29.375,2.532887,0.4361343,2.9690213
31.25,2.54137,0.4219593,2.9633293
33.125,2.549834,0.4089908,2.9588248
35.0,2.55828,0.3970663,2.9553463
36.875,2.566709,0.3860522,2.9527612
38.75,2.575119,0.3758377,2.9509567
42.5,2.591888,0.3574516,2.9493396
46.25,2.608588,0.341324,2.949912
50.0,2.625221,0.3270323,2.9522533
53.125,2.639031,0.3162866,2.9553176
56.25,2.652796,0.3064349,2.9592309
59.375,2.666518,0.2973649,2.9638829
62.5,2.680195,0.2889789,2.9691739
68.75,2.707422,0.273946,2.981368
75.0,2.734483,0.2608263,2.9953093
81.25,2.761385,0.2492494,3.0106344
87.5,2.788131,0.238943,3.027074
93.75,2.814728,0.2296906,3.0444186
100.0,2.841183,0.2213224,3.0625054
106.25,2.867497,0.2137133,3.0812103
112.5,2.893679,0.2067577,3.1004367
118.75,2.919731,0.20037,3.120101
125.0,2.945659,0.1944794,3.1401384
131.25,2.971466,0.1890271,3.1604931
137.5,2.997158,0.1839631,3.1811211
150.0,3.048212,0.174839,3.223051
162.5,3.098854,0.1668376,3.2656916
175.0,3.149112,0.1597596,3.3088716
187.5,3.199019,0.1534477,3.3524667
200.0,3.248603,0.1477784,3.3963814
218.75,3.32243,0.140282,3.462712
237.5,3.395672,0.1337797,3.5294517
256.25,3.468408,0.1280856,3.5964936
275.0,3.540709,0.1230604,3.6637694
293.75,3.612647,0.1185935,3.7312405
312.5,3.684284,0.1145974,3.7988814
331.25,3.75568,0.1110049,3.8666849
350.0,3.826893,0.1077601,3.9346531
368.75,3.897973,0.1048172,4.0027902
387.5,3.968973,0.1021384,4.0711114
406.25,4.039938,0.09969168,4.13962968
425.0,4.110913,0.09745039,4.20836339
462.5,4.253065,0.09349637,4.34656137
500.0,4.395747,0.09013103,4.48587803
531.25,4.515265,0.08769641,4.60296141
562.5,4.635507,0.08554439,4.72105139
593.75,4.756622,0.08363599,4.84025799
625.0,4.87875,0.08193883,4.96068883
656.25,5.002021,0.08042618,5.08244718
687.5,5.126564,0.07907582,5.20563982
750.0,5.379947,0.07679031,5.45673731
812.5,5.639832,0.07496488,5.71479688
875.0,5.907119,0.07351428,5.98063328
937.4995,6.182663,0.07237432,6.25503732
999.9989999999999,6.467271,0.07149553,6.53876653
1003.908,6.485367,0.07144773,6.55681473
1007.8140000000001,6.503519,0.07140162,6.57492062
1022.951,6.574302,0.07123224,6.64553424
1038.088,6.645758,0.07107654,6.71683454
1068.361,6.790481,0.07079928,6.86128028
1128.907,7.087084,0.07036819,7.15745219
1189.454,7.3947,0.07009961,7.46479961
1250.0,7.714229,0.06997834,7.78420734
1375.0,8.415417,0.07014104,8.48555804
1500.0,9.179033,0.07079503,9.24982803
1625.0,10.01414,0.07189214,10.0860321
1687.5,10.46164,0.07259808,10.5342381
1750.0,10.93098,0.07340647,11.0043865
1812.5,11.42364,0.07431664,11.4979566
1875.0,11.94127,0.07532871,12.0165987
1937.5,12.4856,0.0764436,12.5620436
2000.0,13.0586,0.07766313,13.1362631
2122.006,14.27526,0.08037919,14.3556392
2183.009,14.92256,0.08186463,15.0044246
2244.011,15.61696,0.08349743,15.7004574
2366.0170000000003,17.11127,0.08707818,17.1983482
2427.02,17.92674,0.0890672,18.0158072
2488.022,18.79367,0.09120042,18.8848704
2549.025,19.70141,0.09344639,19.7948564
2610.028,20.6665,0.09584869,20.7623487
2671.031,21.70359,0.09844274,21.8020327
2732.033,22.79247,0.1011727,22.8936427
2793.036,23.94405,0.1040661,24.0481161
2854.039,25.19605,0.1072165,25.3032665
2884.541,25.82716,0.1088048,25.9359648
2915.042,26.51456,0.1105346,26.6250946
2976.0440000000003,27.90241,0.114027,28.016437
3048.139,29.7047,0.1185562,29.8232562
3120.233,31.65253,0.123441,31.775971
3156.28,32.65414,0.1259509,32.7800909
3192.327,33.72741,0.128634,33.856044
3264.421,36.01553,0.1343389,36.1498689
3336.516,38.49547,0.1404992,38.6359692
3408.6099999999997,41.20966,0.1472108,41.3568708
3480.7039999999997,44.17491,0.1545074,44.3294174
3552.798,47.40696,0.1624205,47.5693805
3613.801,50.40844,0.1697272,50.5781672
3674.8039999999996,53.64273,0.177563,53.820293
3735.807,57.14871,0.1860121,57.3347221
3796.8089999999997,60.97535,0.1951794,61.1705294
3857.812,65.11263,0.2050375,65.3176675
3918.814,69.64332,0.2157639,69.8590839
3979.817,74.58387,0.227388,74.811258
4040.819,79.95163,0.2399407,80.1915707
4101.822,85.8823,0.2537071,86.1360071
4132.324,89.01579,0.2609505,89.2767405
4162.825,92.34435,0.2686095,92.6129595
4223.8279999999995,99.43066,0.2848352,99.7154952
4284.83,107.2583,0.3026181,107.560918
4345.8330000000005,115.807,0.321901,116.128901
4406.836,125.2701,0.3430669,125.613167
4437.338,130.3112,0.3542819,130.665482
4467.839,135.6836,0.3661676,136.049768
4528.840999999999,147.0826,0.3912513,147.473851
4587.736,159.3005,0.4178747,159.718375
4617.184,165.753,0.4318611,166.184861
4646.631,172.6386,0.4466869,173.085287
4705.526,187.1725,0.4777984,187.650298
4764.420999999999,203.1929,0.5117079,203.704608
4793.869,211.6279,0.529448,212.157348
