energy (eV),scatter (barn),capture (barn),total (barn)
9.999999999999999e-06,54.18738,0.008545333,54.1959253
1.03125e-05,53.36351,0.008414862,53.3719249
1.0625e-05,52.57632,0.008290191,52.5846102
1.09375e-05,51.82315,0.008170901,51.8313209
1.125e-05,51.10164,0.008056617,51.1096966
1.15625e-05,50.40963,0.007946998,50.417577
1.1874999999999999e-05,49.74515,0.007841735,49.7529917
1.21875e-05,49.10645,0.007740547,49.1141905
1.25e-05,48.49188,0.007643178,48.4995232
1.28125e-05,47.89998,0.007549393,47.9075294
1.3125e-05,47.32938,0.007458978,47.336839
1.34375e-05,46.77885,0.007371736,46.7862217
1.3749999999999999e-05,46.24722,0.007287484,46.2545075
1.4375e-05,45.23655,0.0071273,45.2436773
1.5e-05,44.28985,0.006977235,44.2968272
1.546246e-05,43.62669,0.006872103,43.6335621
1.5924920000000002e-05,42.99269,0.006771585,42.9994616
1.638738e-05,42.38579,0.006675353,42.3924654
1.684983e-05,41.80413,0.006583112,41.8107131
1.6875e-05,41.77316,0.006578201,41.7797382
1.695313e-05,41.67747,0.006563025,41.684033
1.703125e-05,41.58245,0.006547956,41.588998
1.7187499999999998e-05,41.39435,0.006518125,41.4008681
1.7500000000000002e-05,41.02575,0.006459665,41.0322097
1.8125e-05,40.31744,0.006347315,40.3237873
1.875e-05,39.64493,0.006240629,39.6511706
1.9375e-05,39.00531,0.006139149,39.0114492
1.9999999999999998e-05,38.396,0.006042463,38.4020425
2.083056e-05,37.62923,0.005920775,37.6351508
2.166111e-05,36.90713,0.005806156,36.9129362
2.2491669999999998e-05,36.22551,0.005697944,36.2312079
2.332222e-05,35.58076,0.005595567,35.5863556
2.4152780000000002e-05,34.96966,0.005498516,34.9751585
2.498333e-05,34.38941,0.005406347,34.3948163
2.581389e-05,33.83747,0.005318662,33.8427887
2.6644439999999998e-05,33.31164,0.00523511,33.3168751
2.7499999999999998e-05,32.79517,0.005153031,32.800323
2.84375e-05,32.25632,0.005067379,32.2613874
2.9375000000000003e-05,31.74357,0.004985861,31.7485559
3.0312499999999998e-05,31.25489,0.004908154,31.2597982
3.125e-05,30.78847,0.004833971,30.793304
3.2187499999999996e-05,30.34266,0.004763053,30.3474231
3.3125e-05,29.91599,0.004695168,29.9206852
3.40625e-05,29.50715,0.004630105,29.5117801
3.5000000000000004e-05,29.11492,0.004567673,29.1194877
3.625e-05,28.61591,0.00448823,28.6203982
3.75e-05,28.1422,0.004412792,28.1466128
3.875e-05,27.69171,0.004341034,27.696051
3.9999999999999996e-05,27.26262,0.004272667,27.2668927
4.125e-05,26.8533,0.004207432,26.8575074
4.25e-05,26.46226,0.004145096,26.4664051
4.4375e-05,25.90717,0.004056579,25.9112266
4.625e-05,25.38638,0.0039735,25.3903535
4.8125000000000004e-05,24.89653,0.003895325,24.9004253
5e-05,24.43467,0.00382159,24.4384916
5.15625e-05,24.06932,0.003763242,24.0730832
5.3125e-05,23.72033,0.003707487,23.7240375
5.46875e-05,23.38651,0.003654139,23.3901641
5.625e-05,23.0668,0.00360303,23.070403
5.78125e-05,22.76024,0.003554007,22.763794
5.9375e-05,22.46596,0.003506932,22.4694669
6.0937500000000004e-05,22.18316,0.003461679,22.1866217
6.25e-05,21.91112,0.003418134,21.9145381
6.40625e-05,21.64918,0.003376192,21.6525562
6.562500000000001e-05,21.39674,0.003335758,21.4000758
6.874999999999999e-05,20.91814,0.003259063,20.9213991
7.1875e-05,20.4714,0.003187427,20.4745874
7.5e-05,20.05315,0.003120315,20.0562703
7.75e-05,19.73711,0.003069576,19.7401796
7.999999999999999e-05,19.43616,0.003021233,19.4391812
8.374999999999999e-05,19.01053,0.002952819,19.0134828
8.75e-05,18.61287,0.002888851,18.6157589
9.0625e-05,18.30074,0.002838607,18.3035786
9.375e-05,18.00454,0.002790895,18.0073309
9.6875e-05,17.72297,0.002745512,17.7257155
0.0001,17.45488,0.002702273,17.4575823
0.000103125,17.19924,0.002661014,17.201901
0.00010625,16.95511,0.00262159,16.9577316
0.000109375,16.72167,0.002583867,16.7242539
0.0001125,16.49817,0.002547727,16.5007177
0.000115625,16.28393,0.002513063,16.2864431
0.00011875,16.07833,0.002479776,16.0808098
0.00012187500000000001,15.88083,0.002447777,15.8832778
0.000125,15.69089,0.002416987,15.693307
0.000128125,15.50807,0.002387329,15.5104573
0.00013125000000000002,15.33192,0.002358737,15.3342787
0.00013749999999999998,14.99814,0.002304506,15.0004445
0.00014375,14.68677,0.002253852,14.6890239
0.00015,14.39545,0.002206397,14.3976564
0.0001546246,14.19157,0.002173151,14.1937432
0.0001592492,13.99683,0.002141365,13.9989714
0.00016387379999999998,13.81057,0.002110933,13.8126809
0.0001684983,13.6322,0.002081764,13.6342818
0.00016875,13.62271,0.002080211,13.6247902
0.00016953130000000002,13.59338,0.002075412,13.5954554
0.0001703125,13.56427,0.002070647,13.5663406
0.000171875,13.50664,0.002061213,13.5087012
0.000175,13.39376,0.002042727,13.3958027
0.00018125,13.17703,0.002007199,13.1790372
0.0001875,12.97149,0.001973462,12.9734635
0.00019375,12.77623,0.001941371,12.7781714
0.0002,12.59042,0.001910796,12.5923308
0.0002083056,12.35691,0.001872315,12.3587823
0.0002166111,12.13733,0.001836069,12.1391661
0.0002249167,11.93038,0.00180185,11.9321819
0.00023322219999999998,11.73491,0.001769475,11.7366795
0.0002415278,11.54992,0.001738785,11.5516588
0.0002498333,11.37452,0.001709639,11.3762296
0.0002581389,11.20794,0.00168191,11.2096219
0.00026644440000000004,11.04947,0.001655489,11.0511255
0.00027499999999999996,10.89406,0.001629533,10.8956895
0.000284375,10.73217,0.001602448,10.7337724
0.00029375,10.57838,0.001576669,10.5799567
0.00030312499999999995,10.43206,0.001552096,10.4336121
0.0003125,10.29263,0.001528638,10.2941586
0.000321875,10.15958,0.001506211,10.1610862
0.00033125,10.03247,0.001484744,10.0339547
0.000340625,9.910857,0.00146417,9.91232117
0.00035,9.794384,0.001444427,9.79582843
0.0003625,9.646489,0.001419305,9.64790831
0.000375,9.506396,0.001395449,9.50779145
0.0003875,9.373464,0.001372758,9.37483676
0.0004,9.247123,0.001351138,9.24847414
0.0004125,9.126862,0.001330509,9.12819251
0.000425,9.012227,0.001310797,9.0135378
0.00044374999999999997,8.849935,0.001282805,8.85121781
0.0004625,8.698168,0.001256533,8.69942453
0.00048124999999999996,8.555876,0.001231812,8.55710781
0.0005,8.422149,0.001208495,8.4233575
0.0005156249999999999,8.316677,0.001190044,8.31786704
0.00053125,8.216195,0.001172413,8.21736741
0.000546875,8.120336,0.001155543,8.12149154
0.0005625,8.028773,0.00113938,8.02991238
0.000578125,7.941208,0.001123878,7.94233188
0.0005937500000000001,7.857371,0.001108992,7.85847999
0.000609375,7.777017,0.001094681,7.77811168
0.000625,7.699923,0.001080911,7.70100391
0.0006562499999999999,7.554715,0.001054862,7.55576986
0.0006875,7.420312,0.001030609,7.42134261
0.00071875,7.2955,0.001007955,7.29650796
0.00075,7.179246,0.000986733,7.18023273
0.000775,7.091806,0.0009706876,7.09277669
0.0008,7.008878,0.0009554003,7.0098334
0.0008374999999999999,6.892183,0.0009337659,6.89311677
0.000875,6.783812,0.0009135377,6.78472554
0.00090625,6.699217,0.0008976489,6.70011465
0.0009375,6.619335,0.0008825614,6.62021756
0.00096875,6.543773,0.00086821,6.54464121
0.001,6.472178,0.0008545366,6.47303254
0.0010312499999999998,6.404238,0.0008414896,6.40507949
0.0010625,6.339673,0.0008290225,6.34050202
0.00109375,6.27823,0.0008170935,6.27904709
0.001125,6.219684,0.0008056652,6.22048967
0.00115625,6.163829,0.0007947033,6.1646237
0.0011875000000000002,6.110482,0.0007841771,6.11126618
0.00125,6.010646,0.0007643214,6.01141032
0.0013124999999999999,5.919002,0.0007459015,5.9197479
0.001375,5.834565,0.0007287522,5.83529375
0.0014375,5.756507,0.0007127338,5.75721973
0.0015,5.684124,0.0006977274,5.68482173
0.001546238,5.633868,0.000687216,5.63455522
0.001592476,5.586172,0.0006771659,5.58684917
0.001684952,5.497711,0.0006583213,5.49836932
0.0016875,5.495394,0.0006578241,5.49605182
0.001695313,5.48833,0.0006563065,5.48898631
0.001703125,5.481324,0.0006547996,5.4819788
0.00171875,5.46748,0.0006518165,5.46813182
0.00175,5.440448,0.0006459705,5.44109397
0.0018125,5.388872,0.0006347355,5.38950674
0.001875,5.340362,0.0006240671,5.34098607
0.0019375,5.294654,0.0006139191,5.29526792
0.002,5.251512,0.0006042506,5.25211625
0.002083053,5.197796,0.0005920822,5.19838808
0.002166105,5.147812,0.0005806207,5.14839262
0.002249157,5.101184,0.0005698001,5.1017538
0.002332209,5.057586,0.0005595627,5.05814556
0.002415261,5.016736,0.000549858,5.01728586
0.002498313,4.978383,0.0005406414,4.97892364
0.002581365,4.942306,0.0005318732,4.94283787
0.002664417,4.908311,0.0005235182,4.90883452
0.00275,4.875274,0.0005153077,4.87578931
0.00284375,4.841211,0.0005067426,4.84171774
0.0029375,4.80918,0.0004985908,4.80967859
0.0031249999999999997,4.750536,0.000483402,4.7510194
0.0033125,4.698164,0.0004695218,4.69863352
0.0035,4.651119,0.0004567724,4.65157577
0.00375,4.595381,0.0004412844,4.59582228
0.004,4.54633,0.0004272721,4.54675727
0.00425,4.502847,0.0004145151,4.50326152
0.0044375,4.473348,0.0004056635,4.47375366
0.004625,4.446173,0.0003973557,4.44657036
0.0048125,4.42106,0.0003895383,4.42144954
0.005,4.397787,0.0003821649,4.39816917
0.0053124999999999995,4.362573,0.0003707548,4.36294375
0.005625,4.331204,0.0003603092,4.33156431
0.0059375,4.303086,0.0003506996,4.3034367
0.0062499999999999995,4.277746,0.0003418201,4.27808782
0.0065625,4.254792,0.0003335826,4.25512558
0.006875,4.233907,0.0003259134,4.23423291
0.0075,4.197321,0.000312039,4.19763304
0.008,4.172146,0.0003021311,4.17244813
0.00875,4.139758,0.0002888935,4.14004689
0.009375,4.116715,0.0002790984,4.1169941
0.01,4.096548,0.0002702366,4.09681824
0.010624999999999999,4.078751,0.0002621688,4.07901317
0.01125,4.062929,0.000254783,4.06318378
0.012499999999999999,4.036029,0.0002417099,4.03627071
0.01375,4.014019,0.0002304629,4.01424946
0.015,3.995676,0.000220653,3.99589665
0.01684949,3.973529,0.0002081933,3.97373719
0.016875,3.973257,0.0002080359,3.97346504
0.01695313,3.97243,0.000207556,3.97263756
0.017031249999999998,3.971612,0.0002070796,3.97181908
0.0171875,3.969996,0.0002061363,3.97020214
0.0175,3.966852,0.0002042879,3.96705629
0.01875,3.955322,0.0001973624,3.95551936
0.02,3.945233,0.0001910968,3.9454241
0.02265,3.927528,0.0001795732,3.92770757
0.025300000000000003,3.913532,0.0001699117,3.91370191
0.02800157,3.90199,0.0001615104,3.90215151
0.030703130000000002,3.89248,0.0001542442,3.89263424
0.03340469,3.884508,0.0001478784,3.88465588
0.03610625,3.877728,0.0001422413,3.87787024
0.03957969,3.870372,0.0001358597,3.87050786
0.043053129999999995,3.864203,0.0001302668,3.86433327
0.046526569999999996,3.858955,0.0001253124,3.85908031
0.049999999999999996,3.854436,0.0001208837,3.85455688
0.050600000000000006,3.853718,0.0001201652,3.85383817
0.05278988,3.851237,0.0001176477,3.85135465
0.05497975,3.848953,0.0001152821,3.84906828
0.0593595,3.844892,0.0001109501,3.84500295
0.059375,3.844878,0.0001109356,3.84498894
0.059423830000000004,3.844836,0.00011089,3.84494689
0.05947266,3.844794,0.0001108445,3.84490484
0.059570319999999996,3.844711,0.0001107537,3.84482175
0.05976563,3.844545,0.0001105727,3.84465557
0.06015625000000001,3.844216,0.0001102133,3.84432621
0.0609375,3.843571,0.0001095049,3.84368051
0.0625,3.842329,0.0001081283,3.84243713
0.06875,3.837927,0.0001030996,3.8380301
0.075,3.834258,9.87137e-05,3.83435671
0.084375,3.829775,9.307359e-05,3.82986807
0.08449632,3.829724,9.300683e-05,3.82981701
0.08487178000000001,3.829565,9.280111e-05,3.8296578
0.08524724,3.829408,9.259676e-05,3.8295006
0.08599816,3.829098,9.219209e-05,3.82919019
0.0875,3.828493,9.139847e-05,3.8285844
0.09062500000000001,3.827301,8.981095e-05,3.82739081
0.09375,3.826188,8.830368e-05,3.8262763
0.09999999999999999,3.82417,8.550452e-05,3.8242555
0.11249999999999999,3.820807,8.06255e-05,3.82088763
0.125,3.818117,7.650059e-05,3.8181935
0.1375,3.815916,7.295272e-05,3.81598895
0.15,3.814081,6.985759e-05,3.81415086
0.1684949,3.811866,6.592567e-05,3.81193193
0.16875,3.811839,6.587601e-05,3.81190488
0.1695313,3.811757,6.572458e-05,3.81182272
0.1703125,3.811675,6.557422e-05,3.81174057
0.171875,3.811513,6.527656e-05,3.81157828
0.175,3.811199,6.469325e-05,3.81126369
0.1875,3.810046,6.250745e-05,3.81010851
0.19999999999999998,3.809037,6.052916e-05,3.80909753
0.2166104,3.807876,5.816898e-05,3.80793417
0.2332207,3.806881,5.606558e-05,3.80693707
0.2664414,3.805265,5.246825e-05,3.80531747
0.275,3.80491,5.164873e-05,3.80496165
0.29375,3.804207,4.997894e-05,3.80425698
0.3125,3.803589,4.846061e-05,3.80363746
0.35,3.802551,4.580028e-05,3.8025968
0.39999999999999997,3.801469,4.285354e-05,3.80151185
0.425,3.801024,4.157741e-05,3.80106558
0.5,3.799956,3.834113e-05,3.79999434
0.625,3.798746,3.430776e-05,3.79878031
0.75,3.797938,3.13296e-05,3.79796933
0.7999999999999999,3.797685,3.033676e-05,3.79771534
0.875,3.797361,2.901278e-05,3.79739001
1.0,3.796929,2.715658e-05,3.79695616
1.25,3.796323,2.437365e-05,3.79634737
1.5,3.795919,2.232552e-05,3.79594133
1.684949,3.795697,2.11064e-05,3.79571811
1.6875,3.795694,2.109108e-05,3.79571509
1.75,3.79563,2.07259e-05,3.79565073
2.0,3.795413,1.943413e-05,3.79543243
2.664414,3.795041,1.692302e-05,3.79505792
2.75,3.794999,1.66701e-05,3.79501567
2.9375,3.794928,1.614647e-05,3.79494415
3.125,3.794866,1.56694e-05,3.79488167
3.5,3.794761,1.483803e-05,3.79477584
4.0,3.794652,1.391227e-05,3.79466591
4.25,3.794607,1.351198e-05,3.79462051
5.0,3.794498,1.249086e-05,3.79451049
6.25,3.794374,1.121767e-05,3.79438522
7.5,3.794291,1.027473e-05,3.79430127
8.0,3.794265,9.958172e-06,3.79427496
8.75,3.794231,9.539196e-06,3.79424054
10.0,3.794185,8.945556e-06,3.79419395
12.5,3.794118,8.110657e-06,3.79412611
15.0,3.794073,7.490225e-06,3.79408049
16.849490000000003,3.794047,7.118255e-06,3.79405412
16.875,3.794046,7.113602e-06,3.79405311
17.5,3.794038,7.003638e-06,3.794045
20.0,3.794011,6.606789e-06,3.79401761
27.5,3.793953,5.875259e-06,3.79395888
35.0,3.793912,5.375333e-06,3.79391738
40.0,3.79389,5.115263e-06,3.79389512
42.5,3.79388,5.005198e-06,3.79388501
50.0,3.793853,4.712939e-06,3.79385771
62.5,3.793812,4.456293e-06,3.79381646
75.0,3.793776,4.25733e-06,3.79378026
87.5,3.793743,4.095731e-06,3.7937471
100.0,3.79371,3.961998e-06,3.79371396
125.0,3.793648,3.843306e-06,3.79365184
150.0,3.793588,3.749151e-06,3.79359175
175.0,3.793529,3.746999e-06,3.79353275
200.0,3.793471,3.745878e-06,3.79347475
275.0,3.7933,3.742519e-06,3.79330374
300.0,3.793243,3.742043e-06,3.79324674
350.0,3.79313,3.821198e-06,3.79313382
425.0,3.79296,3.929058e-06,3.79296393
500.0,3.792792,4.025465e-06,3.79279603
625.0,3.792511,4.238612e-06,3.79251524
700.0,3.792343,4.355017e-06,3.79234736
750.0,3.792231,4.440435e-06,3.79223544
875.0,3.79195,4.642314e-06,3.79195464
900.0,3.791895,4.681452e-06,3.79189968
1000.0,3.791671,4.843376e-06,3.79167584
1100.0,3.791448,4.995284e-06,3.791453
1250.0,3.791113,5.237931e-06,3.79111824
1500.0,3.790556,5.605276e-06,3.79056161
1750.0,3.789998,5.938488e-06,3.79000394
2000.0,3.789441,6.245779e-06,3.78944725
2750.0,3.787769,7.178133e-06,3.78777618
3500.0,3.786097,7.976299e-06,3.78610498
4000.0,3.784983,8.457727e-06,3.78499146
4250.0,3.784426,8.681811e-06,3.78443468
5000.0,3.782754,9.324826e-06,3.78276332
6250.0,3.779982,1.023658e-05,3.77999224
7500.0,3.777212,1.114815e-05,3.77722315
8750.0,3.774441,1.205973e-05,3.77445306
10000.0,3.77167,1.297095e-05,3.77168297
12500.0,3.76618,1.44059e-05,3.76619441
15000.0,3.760689,1.58401e-05,3.76070484
17500.0,3.755199,1.691373e-05,3.75521591
20000.0,3.749708,1.798695e-05,3.74972599
22500.0,3.744288,1.906018e-05,3.74430706
25000.0,3.738867,2.01334e-05,3.73888713
27500.0,3.733447,2.120663e-05,3.73346821
30000.0,3.728026,2.227985e-05,3.72804828
32500.0,3.722677,2.335308e-05,3.72270035
35000.0,3.717328,2.44259e-05,3.71735243
37500.0,3.711978,2.526001e-05,3.71200326
40000.0,3.706629,2.609373e-05,3.70665509
42500.0,3.701353,2.692744e-05,3.70137993
45000.0,3.696078,2.776115e-05,3.69610576
47500.0,3.690802,2.859486e-05,3.69083059
50000.0,3.685526,2.942858e-05,3.68555543
52500.0,3.680327,3.026229e-05,3.68035726
55000.0,3.675128,3.109579e-05,3.6751591
57500.0,3.669928,3.182775e-05,3.66995983
60000.0,3.664729,3.25595e-05,3.66476156
62500.0,3.659609,3.329125e-05,3.65964229
65000.0,3.654489,3.4023e-05,3.65452302
67500.0,3.649368,3.475475e-05,3.64940275
70000.0,3.644248,3.54865e-05,3.64428349
75000.0,3.634174,3.694986e-05,3.63421095
80000.0,3.6241,3.83025e-05,3.6241383
85000.0,3.614201,3.9655e-05,3.61424066
90000.0,3.604301,4.10075e-05,3.60434201
95000.0,3.594587,4.235991e-05,3.59462936
100000.0,3.584872,4.365e-05,3.58491565
105000.0,3.575461,4.494e-05,3.57550594
110000.0,3.56605,4.623e-05,3.56609623
115000.0,3.556639,4.751996e-05,3.55668652
120000.0,3.547229,4.878143e-05,3.54727778
125000.0,3.538277,5.004286e-05,3.53832704
130000.0,3.529325,5.130429e-05,3.5293763
135000.0,3.520374,5.256571e-05,3.52042657
140000.0,3.511423,5.382714e-05,3.51147683
150000.0,3.494623,5.635007e-05,3.49467935
160000.0,3.477825,5.895e-05,3.47788395
170000.0,3.462395,6.155e-05,3.46245655
180000.0,3.446967,6.415e-05,3.44703115
190000.0,3.433298,6.675e-05,3.43336475
200000.0,3.419633,6.935043e-05,3.41970235
210000.0,3.408323,7.2372e-05,3.40839537
220000.0,3.397018,7.5394e-05,3.39709339
230000.0,3.388998,7.8416e-05,3.38907642
240000.0,3.380985,8.1438e-05,3.38106644
250000.0,3.377764,8.44609e-05,3.37784846
260000.0,3.374556,8.827667e-05,3.37464428
270000.0,3.378701,9.209333e-05,3.37879309
280000.0,3.382868,9.591113e-05,3.38296391
300000.0,3.415153,0.0001054416,3.41525844
320000.0,3.489224,0.0001175427,3.48934154
340000.0,3.64273,0.0001339351,3.64286394
360000.0,3.965229,0.0001580968,3.9653871
370000.0,4.334726,0.0001751974,4.3349012
380000.0,4.70501,0.0001977011,4.7052077
390000.0,5.437963,0.0002281762,5.43819118
395000.0,5.976334,0.00024913,5.97658313
400000.0,6.685746,0.0002701148,6.68601611
405000.0,7.625759,0.0002962586,7.62605526
410000.0,8.866674,0.0003254018,8.8669994
415000.0,10.46672,0.0003551545,10.4670752
420000.0,12.40438,0.0003795315,12.4047595
425000.0,14.44563,0.0003873012,14.4460173
430000.0,16.03514,0.000364887,16.0355049
434000.0,16.52081,0.000319198,16.5211292
435000.0,16.50317,0.0003076887,16.5034777
440000.0,15.63901,0.0002298976,15.6392399
445000.0,13.9143,0.0001546408,13.9144546
450000.0,11.97999,9.624692e-05,11.9800862
455000.0,10.23792,5.667515e-05,10.2379767
460000.0,8.816576,3.197002e-05,8.81660797
465000.0,7.703701,2.061901e-05,7.70372162
470000.0,6.842894,9.335298e-06,6.84290334
475000.0,6.175586,6.533948e-06,6.17559253
480000.0,5.653888,3.768993e-06,5.65389177
490000.0,5.035261,4.632792e-06,5.03526563
500000.0,4.417816,7.770314e-06,4.41782377
520000.0,3.831302,1.464402e-05,3.83131664
540000.0,3.503605,2.151821e-05,3.50362652
550000.0,3.400167,2.495284e-05,3.40019195
560000.0,3.296883,2.691896e-05,3.29690992
580000.0,3.154131,3.084628e-05,3.15416185
600000.0,3.048602,3.477168e-05,3.04863677
620000.0,2.9665,3.650416e-05,2.9665365
640000.0,2.900201,3.823472e-05,2.90023923
650000.0,2.872743,3.909863e-05,2.8727821
660000.0,2.845303,3.921e-05,2.84534221
680000.0,2.799233,3.943e-05,2.79927243
700000.0,2.760557,3.964896e-05,2.76059665
720000.0,2.728649,3.8762e-05,2.72868776
740000.0,2.703547,3.7874e-05,2.70358487
750000.0,2.69475,3.742931e-05,2.69478743
760000.0,2.685969,3.6634e-05,2.68600563
780000.0,2.677462,3.5042e-05,2.67749704
800000.0,2.680738,3.345005e-05,2.68077145
810000.0,2.688115,3.267752e-05,2.68814768
820000.0,2.700345,3.190504e-05,2.70037691
830000.0,2.718479,3.113256e-05,2.71851013
840000.0,2.743891,3.036008e-05,2.74392136
850000.0,2.77839,2.958963e-05,2.77841959
860000.0,2.824377,2.979356e-05,2.82440679
870000.0,2.885065,2.999952e-05,2.885095
880000.0,2.964805,3.020548e-05,2.96483521
890000.0,3.069527,3.041144e-05,3.06955741
900000.0,3.207376,3.062176e-05,3.20740662
910000.0,3.389549,3.286247e-05,3.38958186
920000.0,3.631341,3.511214e-05,3.63137611
930000.0,3.953094,3.948377e-05,3.95313348
940000.0,4.380172,4.386564e-05,4.38021587
950000.0,4.939355,5.0815e-05,4.93940582
960000.0,5.646014,5.777355e-05,5.64607177
970000.0,6.473822,6.633e-05,6.47388833
980000.0,7.308865,7.487873e-05,7.30893988
990000.0,7.933726,7.8395e-05,7.9338044
1000000.0,8.12579,8.187998e-05,8.12587188
1010000.0,7.834493,7.652e-05,7.83456952
1020000.0,7.214603,7.114e-05,7.21467414
1030000.0,6.483851,6.3695e-05,6.4839147
1040000.0,5.789563,5.625e-05,5.78961925
1050000.0,5.193048,5.088e-05,5.19309888
1060000.0,4.703563,4.551e-05,4.70360851
