energy (eV),scatter (barn),capture (barn),total (barn)
9.999999999999999e-06,45.86399,1.49820701,47.362197
1.03125e-05,45.19998,1.47533301,46.675313
1.0625e-05,44.56602,1.45347501,46.019495
1.09375e-05,43.95991,1.43256001,45.39247
1.125e-05,43.37971,1.41252401,44.792234
1.15625e-05,42.82365,1.39330501,44.216955
1.1874999999999999e-05,42.29012,1.37485001,43.66497
1.21875e-05,41.77767,1.35710901,43.134779
1.25e-05,41.28495,1.34003801,42.624988
1.28125e-05,40.81076,1.32359501,42.134355
1.3125e-05,40.35398,1.30774301,41.661723
1.34375e-05,39.91359,1.29244701,41.206037
1.3749999999999999e-05,39.48864,1.27767601,40.766316
1.4375e-05,38.68168,1.24959101,39.931271
1.5e-05,37.92693,1.22328101,39.150211
1.546246e-05,37.39892,1.20484901,38.603769
1.5924920000000002e-05,36.89468,1.18722601,38.081906
1.638738e-05,36.41252,1.17035401,37.582874
1.684983e-05,35.95091,1.15418201,37.105092
1.6875e-05,35.92635,1.15332101,37.079671
1.695313e-05,35.85046,1.15066001,37.00112
1.703125e-05,35.77512,1.14801801,36.923138
1.7187499999999998e-05,35.62602,1.14278801,36.768808
1.7500000000000002e-05,35.33402,1.13253801,36.466558
1.8125e-05,34.77351,1.11284101,35.886351
1.875e-05,34.24212,1.09413601,35.336256
1.9375e-05,33.73746,1.07634401,34.813804
1.9999999999999998e-05,33.25742,1.05939301,34.316813
2.090512e-05,32.60206,1.03620501,33.638265
2.181024e-05,31.98935,1.01447601,33.003826
2.1875e-05,31.94703,1.01297301,32.960003
2.202405e-05,31.85036,1.00954001,32.8599
2.217309e-05,31.75471,1.00614101,32.760851
2.247118e-05,31.56638,0.999445508,32.5658255
2.306736e-05,31.20113,0.986445507,32.1875755
2.366354e-05,30.85031,0.973940007,31.82425
2.425972e-05,30.51301,0.961898307,31.4749083
2.48559e-05,30.18842,0.950292507,31.1387125
2.545208e-05,29.87578,0.939096907,30.8148769
2.6644439999999998e-05,29.2836,0.917843707,30.2014437
2.7499999999999998e-05,28.88369,0.903453307,29.7871433
2.84375e-05,28.46731,0.888436407,29.3557464
2.9375000000000003e-05,28.07196,0.874144307,28.9461043
3.0312499999999998e-05,27.69598,0.860520506,28.5565005
3.125e-05,27.3379,0.847514406,28.1854144
3.2187499999999996e-05,26.99638,0.835080706,27.8314607
3.3125e-05,26.67023,0.823178806,27.4934088
3.40625e-05,26.35837,0.811771606,27.1701416
3.5000000000000004e-05,26.05982,0.800825806,26.8606458
3.625e-05,25.68095,0.786897406,26.4678474
3.75e-05,25.3223,0.773671306,26.0959713
3.875e-05,24.98219,0.761090406,25.7432804
3.9999999999999996e-05,24.65916,0.749104006,25.408264
4.125e-05,24.35187,0.737666706,25.0895367
4.25e-05,24.05914,0.726737705,24.7858777
4.4375e-05,23.64504,0.711218405,24.3562584
4.625e-05,23.25815,0.696652705,23.9548027
4.8125000000000004e-05,22.89575,0.682946705,23.5786967
5e-05,22.55548,0.670019105,23.2254991
5.2246489999999995e-05,22.17406,0.655456205,22.8295162
5.449298e-05,21.8184,0.641803305,22.4602033
5.673947e-05,21.48585,0.628969505,22.1148195
5.8985960000000005e-05,21.17416,0.616876105,21.7910361
6.074298e-05,20.94363,0.607888905,21.5515189
6.25e-05,20.72379,0.599283405,21.3230734
6.40625e-05,20.53667,0.591930004,21.1286
6.562500000000001e-05,20.35693,0.584840704,20.9417707
6.71875e-05,20.18413,0.578000304,20.7621303
6.874999999999999e-05,20.01785,0.571394404,20.5892444
7.1875e-05,19.70342,0.558834704,20.2622547
7.5e-05,19.41095,0.547068504,19.9580185
7.75e-05,19.19125,0.538172504,19.7294225
7.999999999999999e-05,18.9831,0.529696804,19.5127968
8.36204e-05,18.70034,0.518103204,19.2184432
8.724079e-05,18.43751,0.507239004,18.944749
8.75e-05,18.4194,0.506487104,18.9258871
8.828125000000001e-05,18.36536,0.504241004,18.869601
8.906249999999999e-05,18.31213,0.502024604,18.8141546
9.0625e-05,18.208,0.497678004,18.705678
9.375e-05,18.00864,0.489313104,18.4979531
9.6875e-05,17.8203,0.481356304,18.3016563
0.0001,17.64207,0.473775404,18.1158454
0.0001044935,17.40192,0.463476703,17.8653967
0.0001089869,17.17894,0.453821903,17.6327619
0.0001134803,16.97132,0.444746303,17.4160663
0.0001179737,16.77751,0.436194303,17.2137043
0.0001214869,16.63472,0.429841103,17.0645611
0.000125,16.49899,0.423757803,16.9227478
0.000128125,16.38376,0.418558103,16.8023181
0.00013125000000000002,16.27337,0.413545303,16.6869153
0.000134375,16.16752,0.408708303,16.5762283
0.00013749999999999998,16.06594,0.404037203,16.4699772
0.00014375,15.87459,0.395156303,16.2697463
0.00015,15.69751,0.386836303,16.0843463
0.000155,15.56508,0.380545903,15.9456259
0.00015999999999999999,15.44011,0.374552703,15.8146627
0.0001672411,15.27112,0.366354403,15.6374744
0.0001744821,15.11488,0.358672103,15.4735521
0.000175,15.10416,0.358140903,15.4623009
0.00017656250000000002,15.07215,0.356552703,15.4287027
0.00017812499999999998,15.04066,0.354985503,15.3956455
0.00018125,14.97916,0.351912003,15.331072
0.0001875,14.86179,0.345997103,15.2077871
0.00019375,14.75139,0.340370803,15.0917608
0.0002,14.64735,0.335010303,14.9823603
0.0002068279,14.54035,0.329434202,14.8697842
0.0002136558,14.4397,0.324127502,14.7638275
0.0002204837,14.34486,0.319069302,14.6639293
0.0002273116,14.25535,0.314240802,14.5695908
0.00023413949999999997,14.17073,0.309625002,14.480355
0.0002409674,14.09062,0.305206902,14.3958269
0.00024779530000000003,14.01467,0.300972602,14.3156426
0.0002546232,13.94257,0.296909802,14.2394798
0.0002648116,13.84155,0.291142202,14.1326922
0.00027499999999999996,13.74765,0.285698102,14.0333481
0.0002843594,13.66705,0.280957002,13.948007
0.0002937188,13.59136,0.276444502,13.8678045
0.000294336,13.58654,0.276154502,13.8626945
0.0002949219,13.58197,0.275880002,13.85785
0.00029648930000000003,13.56984,0.275149802,13.8449898
0.00029805669999999996,13.55783,0.274425402,13.8322554
0.0003011915,13.53418,0.272993602,13.8071736
0.000307461,13.48826,0.270196002,13.758456
0.00031999999999999997,13.40163,0.264849402,13.6664794
0.0003344817,13.3094,0.259052502,13.5684525
0.00034896330000000003,13.22459,0.253620402,13.4782104
0.00035,13.21878,0.253244502,13.4720245
0.0003523438,13.20577,0.252400802,13.4581708
0.0003546875,13.19293,0.251565602,13.4444956
0.000359375,13.16773,0.249919502,13.4176495
0.00036875,13.1192,0.246722202,13.3659222
0.00037812500000000004,13.07302,0.243644502,13.3166645
0.0003875,13.02903,0.240679102,13.2697091
0.000396875,12.98707,0.237819502,13.2248895
0.00040625000000000004,12.94701,0.235059402,13.1820694
0.000425,12.87209,0.229815902,13.1019059
0.00044374999999999997,12.80341,0.224908202,13.0283182
0.0004625,12.74022,0.220302202,12.9605222
0.00048124999999999996,12.68189,0.215968002,12.897858
0.0005,12.62789,0.211879902,12.8397699
0.0005156249999999999,12.58586,0.208644902,12.7945049
0.00053125,12.54629,0.205553702,12.7518437
0.000546875,12.50896,0.202596002,12.711556
0.0005625,12.47369,0.199762402,12.6734524
0.000578125,12.44031,0.197044401,12.6373544
0.0005937500000000001,12.40869,0.194434401,12.6031244
0.000609375,12.37867,0.191925501,12.5705955
0.000625,12.35015,0.189511301,12.5396613
0.0006399999999999999,12.32408,0.187277301,12.5113573
0.0006675,12.27932,0.183379001,12.462699
0.000695,12.23808,0.179714401,12.4177944
0.0007225,12.19998,0.176261001,12.376241
0.00075,12.16467,0.172999401,12.3376694
0.0007812499999999999,12.12756,0.169504101,12.2970641
0.0008125000000000001,12.0933,0.166212401,12.2595124
0.00084375,12.06158,0.163105401,12.2246854
0.000875,12.03212,0.160166301,12.1922863
0.00090625,12.00469,0.157380601,12.1620706
0.0009375,11.97908,0.154735301,12.1338153
0.00096875,11.95513,0.152219101,12.1073491
0.001,11.93268,0.149821801,12.0825018
0.0010312499999999998,11.91159,0.147534301,12.0591243
0.0010625,11.89173,0.145348501,12.0370785
0.00109375,11.87301,0.143257001,12.016267
0.001125,11.85534,0.141253301,11.9965933
0.00115625,11.83861,0.139331401,11.9779414
0.0011875000000000002,11.82277,0.137485801,11.9602558
0.00121875,11.80774,0.135711701,11.9434517
0.00125,11.79346,0.134004601,11.9274646
0.0012799999999999999,11.78041,0.132424901,11.9128349
0.001335,11.758,0.129668301,11.8876683
0.00139,11.73737,0.127077001,11.864447
0.001445,11.71831,0.124635101,11.8429451
0.0015,11.70065,0.122328801,11.8229788
0.0015624999999999999,11.68208,0.119857201,11.8019372
0.0016250000000000001,11.66495,0.117529601,11.7824796
0.0016875,11.64908,0.115332601,11.7644126
0.00175,11.63435,0.113254301,11.7476043
0.0018125,11.62063,0.111284501,11.7319145
0.001875,11.60783,0.109414001,11.717244
0.0019375,11.59586,0.107634801,11.7034948
0.002,11.58463,0.105939601,11.6905696
0.0020700000000000002,11.57286,0.104132901,11.6769929
0.00214,11.56186,0.102415601,11.6642756
0.00221,11.55156,0.100780601,11.6523406
0.00228,11.54189,0.0992214307,11.6411114
0.00235,11.53279,0.0977324607,11.6305225
0.00242,11.52422,0.0963085707,11.6205286
0.00249,11.51614,0.0949451507,11.6110852
0.0025599999999999998,11.50849,0.0936380407,11.602128
0.0025625,11.50823,0.0935923507,11.6018224
0.00256836,11.50761,0.0934855107,11.6010955
0.002574219,11.50699,0.0933790607,11.6003691
0.002596192,11.5047,0.0929830507,11.5976831
0.002618165,11.50245,0.0925920407,11.595042
0.00266211,11.49806,0.0918246007,11.5898846
0.00275,11.48971,0.0903452807,11.5800553
0.00284375,11.48136,0.0888435407,11.5702035
0.0029375,11.47355,0.0874142907,11.5609643
0.0030312499999999997,11.46622,0.0860518606,11.5522719
0.0031249999999999997,11.45933,0.0847512206,11.5440812
0.00321875,11.45284,0.0835078206,11.5363478
0.0033125,11.44672,0.0823176006,11.5290376
0.00340625,11.44094,0.0811768606,11.5221169
0.0035,11.43546,0.0800822806,11.5155423
0.0035937499999999997,11.43028,0.0790308106,11.5093108
0.0036875,11.42535,0.0780197106,11.5033697
0.0037812500000000003,11.42067,0.0770464506,11.4977165
0.003875,11.41622,0.0761087306,11.4923287
0.00396875,11.41197,0.0752044406,11.4871744
0.0040625,11.40793,0.0743316406,11.4822616
0.00425,11.40037,0.0726735005,11.4730435
0.0044375,11.39345,0.0711216105,11.4645716
0.004625,11.38709,0.0696650705,11.4567551
0.0048125,11.38122,0.0682945105,11.4495145
0.005,11.3758,0.0670017805,11.4428018
0.0051199999999999996,11.37254,0.0662119605,11.438752
0.00526125,11.36888,0.0653171305,11.4341971
0.0054025,11.36543,0.0644576205,11.4298876
0.005543749999999999,11.36214,0.0636311605,11.4257712
0.005685,11.35902,0.0628357105,11.4218557
0.00582625,11.35605,0.0620693505,11.4181194
0.005967500000000001,11.35322,0.0613303705,11.4145504
0.00610875,11.35053,0.0606171605,11.4111472
0.0062499999999999995,11.34795,0.0599282705,11.4078783
0.00640625,11.34523,0.0591929104,11.4044229
0.0065625,11.34265,0.0584839804,11.401134
0.00671875,11.34018,0.0577999204,11.3979799
0.006875,11.33782,0.0571393004,11.3949593
0.0071874999999999994,11.33342,0.0558833004,11.3893033
0.0075,11.32939,0.0547066204,11.3840966
0.0078125,11.32567,0.0536012704,11.3792713
0.008125,11.32224,0.0525603104,11.3748003
0.0084375,11.31907,0.0515777404,11.3706477
0.00875,11.31612,0.0506482904,11.3667683
0.0090625,11.31338,0.0497673504,11.3631474
0.009375,11.31082,0.0489308304,11.3597508
0.0096875,11.30842,0.0481351404,11.3565551
0.01,11.30618,0.0473770604,11.3535571
0.0103125,11.30407,0.0466537104,11.3507237
0.010624999999999999,11.30208,0.0459625203,11.3480425
0.0109375,11.30021,0.0453011903,11.3455112
0.01125,11.29844,0.0446676303,11.3431076
0.0115625,11.29677,0.0440599503,11.34083
0.011875,11.29518,0.0434764403,11.3386564
0.0121875,11.29368,0.0429155303,11.3365955
0.012499999999999999,11.29225,0.0423758103,11.3346258
0.0128125,11.29089,0.0418559703,11.332746
0.013125,11.2896,0.0413548103,11.3309548
0.0134375,11.28837,0.0408712403,11.3292412
0.01375,11.28719,0.0404042503,11.3275943
0.014374999999999999,11.28499,0.0395163303,11.3245063
0.015,11.28297,0.0386844303,11.3216544
0.015625,11.28111,0.0379028703,11.3190129
0.01625,11.27939,0.0371667703,11.3165568
0.016875,11.27781,0.0364719003,11.3142819
0.0175,11.27633,0.0358145603,11.3121446
0.018125,11.27496,0.0351915003,11.3101515
0.01875,11.27368,0.0345998503,11.3082799
0.019375,11.27248,0.0340370703,11.3065171
0.02,11.27136,0.0335008803,11.3048609
0.0206625,11.27024,0.0329592902,11.3031993
0.021325,11.26919,0.0324431402,11.3016331
0.0219875,11.26821,0.0319504902,11.3001605
0.02265,11.26728,0.0314796302,11.2987596
0.0233125,11.26641,0.0310289902,11.297439
0.023975,11.26558,0.0305971702,11.2961772
0.024637500000000003,11.2648,0.0301829102,11.2949829
0.025300000000000003,11.26406,0.0297850302,11.293845
0.02645782,11.26285,0.0291259402,11.2919759
0.02761563,11.26175,0.0285087802,11.2902588
0.02877344,11.26073,0.0279293002,11.2886593
0.02993125,11.25979,0.0273838702,11.2871739
0.031089069999999996,11.25892,0.0268692802,11.2857893
0.03224688,11.25812,0.0263827502,11.2845028
0.03340469,11.25737,0.0259217502,11.2832918
0.0345625,11.25667,0.0254840702,11.2821541
0.03552735,11.25612,0.0251357402,11.2812557
0.03649219,11.2556,0.0248012402,11.2804012
0.037457040000000004,11.2551,0.0244797002,11.2795797
0.03842188,11.25464,0.0241703002,11.2788103
0.03938673,11.25419,0.0238723102,11.2780623
0.040351569999999996,11.25377,0.0235850602,11.2773551
0.041316410000000005,11.25336,0.0233079302,11.2766679
0.04228125,11.25298,0.0230403402,11.2760203
0.04421094,11.25225,0.0225316602,11.2747817
0.046140629999999995,11.25159,0.0220552302,11.2736452
0.04807032,11.25098,0.0216077902,11.2725878
0.049999999999999996,11.25042,0.0211865202,11.2716065
0.050600000000000006,11.25026,0.0210604802,11.2713205
0.0520875,11.24986,0.0207574902,11.2706175
0.053575000000000005,11.24949,0.0204672202,11.2699572
0.0550625,11.24913,0.0201888202,11.2693188
0.05655,11.2488,0.0199214702,11.2687215
0.0580375,11.24848,0.0196644702,11.2681445
0.059525,11.24818,0.0194171602,11.2675972
0.061012500000000004,11.24789,0.0191789601,11.267069
0.0625,11.24762,0.0189493501,11.2665694
0.0640625,11.24734,0.0187168701,11.2660569
0.06562499999999999,11.24708,0.0184928001,11.2655728
0.06718750000000001,11.24683,0.0182766501,11.2651067
0.06875,11.24659,0.0180679401,11.2646579
0.071875,11.24615,0.0176710501,11.2638211
0.075,11.24574,0.0172990301,11.263039
0.078125,11.24536,0.0169493901,11.2623094
0.08125,11.24501,0.0166200701,11.2616301
0.084375,11.24469,0.0163092101,11.2609992
0.0875,11.24439,0.0160151601,11.2604052
0.09062500000000001,11.24411,0.0157364501,11.2598465
0.09375,11.24385,0.0154717801,11.2593218
0.096875,11.2436,0.0152200001,11.25882
0.09999999999999999,11.24337,0.0149801201,11.2583501
0.10312500000000001,11.24316,0.0147512701,11.2579113
0.10625,11.24295,0.0145326501,11.2574827
0.109375,11.24276,0.0143234901,11.2570835
0.11249999999999999,11.24258,0.0141231001,11.2567031
0.115625,11.24241,0.0139308701,11.2563409
0.11875,11.24224,0.0137462701,11.2559863
0.121875,11.24209,0.0135688101,11.2556588
0.125,11.24194,0.0133980501,11.2553381
0.128125,11.2418,0.0132336201,11.2550336
0.13124999999999998,11.24166,0.0130751501,11.2547352
0.13437500000000002,11.24153,0.0129223401,11.2544523
0.1375,11.24141,0.0127748201,11.2541848
0.14375,11.24118,0.0124942501,11.2536743
0.15,11.24097,0.0122311101,11.2532011
0.15625,11.24077,0.0119838101,11.2527538
0.1625,11.24059,0.0117509101,11.2523409
0.16875,11.24042,0.0115310701,11.2519511
0.175,11.24026,0.0113231301,11.2515831
0.18125000000000002,11.24011,0.0111260401,11.251236
0.1875,11.23997,0.0109388801,11.2509089
0.19375,11.23984,0.0107608501,11.2506009
0.19999999999999998,11.23972,0.0105913001,11.2503113
0.209375,11.23955,0.0103516101,11.2499016
0.21875,11.23939,0.0101274301,11.2495174
0.22812500000000002,11.23924,0.00991698808,11.249157
0.2375,11.2391,0.00971909107,11.2488191
0.246875,11.23898,0.00953257807,11.2485126
0.25625,11.23886,0.00935640207,11.2482164
0.265625,11.23875,0.00918963907,11.2479396
0.275,11.23864,0.00903148107,11.2476715
0.284375,11.23854,0.00888121207,11.2474212
0.29375,11.23845,0.00873819707,11.2471882
0.30312500000000003,11.23836,0.00860186907,11.2469619
0.3125,11.23827,0.00847172407,11.2467417
0.32187499999999997,11.23819,0.00834730707,11.2465373
0.33125,11.23811,0.00822821206,11.2463382
0.340625,11.23804,0.00811406906,11.2461541
0.35,11.23797,0.00800455706,11.2459746
0.359375,11.2379,0.00789945806,11.2457995
0.36875,11.23783,0.00779860206,11.2456286
0.3875,11.23771,0.00760764706,11.2453176
0.40625,11.23759,0.00742932606,11.2450193
0.425,11.23749,0.00726348406,11.2447535
0.44375,11.23739,0.00710846505,11.2444985
0.4625,11.23729,0.00696266805,11.2442527
0.5,11.23711,0.00669650705,11.2438065
0.53125,11.23697,0.00649663405,11.2434666
0.5625,11.23685,0.00631320105,11.2431632
0.59375,11.23672,0.00614445405,11.2428645
0.625,11.23661,0.00598853405,11.2425985
0.6875,11.2364,0.00570923004,11.2421092
0.75,11.23621,0.00546561404,11.2416756
0.8125,11.23603,0.00525040004,11.2412804
0.875,11.23586,0.00505961804,11.2409196
0.9375,11.2357,0.00488797504,11.240588
1.0,11.23555,0.00473226104,11.2402823
1.0625,11.23539,0.00459049903,11.2399805
1.125,11.23525,0.00446072003,11.2397107
1.1875,11.23511,0.00434132603,11.2394513
1.25,11.23498,0.00423100003,11.239211
1.375,11.23471,0.00403335403,11.2387434
1.5,11.23444,0.00386094503,11.2383009
1.625,11.23419,0.00370882003,11.2378988
1.75,11.23395,0.00357349803,11.2375235
1.875,11.2337,0.00345192303,11.2371519
2.0,11.23346,0.00334162203,11.2368016
2.1875,11.23311,0.00319427802,11.2363043
2.375,11.23276,0.00306480602,11.2358248
2.5625,11.23241,0.00294979602,11.2353598
2.75,11.23207,0.00284686802,11.2349169
2.9375,11.23173,0.00275393702,11.2344839
3.125,11.23139,0.00266935002,11.2340594
3.3125,11.23105,0.00259203802,11.233642
3.5,11.23072,0.00252101002,11.233241
3.75,11.23027,0.00243491602,11.2327049
4.0,11.22983,0.00235647402,11.2321865
4.25,11.22939,0.00228547502,11.2316755
4.625,11.22873,0.00218976902,11.2309198
5.0,11.22807,0.00210506002,11.2301751
5.3125,11.22753,0.00204141502,11.2295714
5.625,11.22698,0.00198307502,11.2289631
5.9375,11.22644,0.00192938502,11.2283694
6.25,11.22589,0.00187975601,11.2277698
6.875,11.22481,0.00179080201,11.2266008
7.5,11.22373,0.00171315901,11.2254432
8.0,11.22287,0.00165762001,11.2245276
8.75,11.22158,0.00158353301,11.2231635
9.375,11.2205,0.00152863501,11.2220286
10.0,11.21944,0.00147888701,11.2209189
10.625,11.21837,0.00143356401,11.2198036
11.25,11.2173,0.00139204401,11.218692
11.875,11.21624,0.00135381801,11.2175938
12.5,11.21518,0.00131847301,11.2164985
13.75,11.21305,0.00125508801,11.2143051
15.0,11.21094,0.00119972601,11.2121397
16.0,11.20924,0.00116011201,11.2104001
17.5,11.20672,0.00110720001,11.2078272
18.75,11.20463,0.00106797301,11.205698
20.0,11.20253,0.00103240401,11.2035624
21.875,11.1994,0.000984810708,11.2003848
23.75,11.19629,0.000942897908,11.1972329
25.625,11.19318,0.000905602907,11.1940856
27.5,11.19009,0.000872140907,11.1909621
29.75,11.18639,0.000836321407,11.1872263
32.0,11.18271,0.000803951406,11.183514
35.0,11.17783,0.000765885206,11.1785959
38.75,11.17178,0.000724520906,11.1725045
42.5,11.16577,0.000688643606,11.1664586
46.25,11.15979,0.000657125505,11.1604471
50.0,11.15387,0.000629144905,11.1544991
53.125,11.14897,0.000608073305,11.1495781
56.25,11.14409,0.000588733005,11.1446787
62.5,11.13443,0.000554383505,11.1349844
64.0,11.13213,0.000546874604,11.1326769
69.5,11.12375,0.000521486304,11.1242715
75.0,11.11546,0.000498738304,11.1159587
81.25,11.10615,0.000475735804,11.1066257
87.5,11.09694,0.000455181004,11.0973952
93.75,11.08784,0.000436661604,11.0882767
100.0,11.07885,0.000419855404,11.0792699
112.5,11.06117,0.000390440303,11.0615604
125.0,11.0439,0.000365447803,11.0442654
128.0,11.03981,0.000359987103,11.04017
139.0,11.02501,0.000341531703,11.0253515
150.0,11.0105,0.000325007503,11.010825
162.5,10.99434,0.000308326003,10.9946483
175.0,10.97855,0.000293446203,10.9788434
200.0,10.94795,0.000267957903,10.948218
218.75,10.92585,0.000251781404,10.9261018
246.87500000000003,10.89396,0.000231099007,10.8941911
275.0,10.8635,0.00021373921,10.8637137
312.5,10.82496,0.000194462714,10.8251545
350.0,10.78857,0.000178516618,10.7887485
400.0,10.74312,0.000161072823,10.7432811
406.25,10.73767,0.000159140626,10.7378291
425.0,10.72161,0.000153625835,10.7217636
462.5,10.69072,0.000143718153,10.6908637
500.0,10.66139,0.000135072071,10.6615251
562.5,10.61566,0.0001228771,10.6157829
625.0,10.57344,0.00011282873,10.5735528
687.5,10.53435,0.00010441696,10.5344544
