Z-coordinate,Electric Potential
-0.02,-1.963149556
-0.019996,-2.005822044
-0.019992,-2.02682844
-0.019988,-2.037928489
-0.019984,-2.044147589
-0.01998,-2.047652713
-0.019976,-2.049524412
-0.019972,-2.050371579
-0.019968,-2.050570859
-0.019964,-2.050364449
-0.01996,-2.049904568
-0.019956,-2.049279467
-0.019952,-2.048534137
-0.019948,-2.047689254
-0.019944,-2.046757238
-0.01994,-2.045752852
-0.019936,-2.044697061
-0.019932,-2.043615491
-0.019928,-2.042534558
-0.019924,-2.041477806
-0.01992,-2.040463275
-0.019916,-2.039501544
-0.019912,-2.038594071
-0.019908,-2.037732299
-0.019904,-2.036898697
-0.0199,-2.036070674
-0.019896,-2.035226936
-0.019892,-2.034354261
-0.019888,-2.033452088
-0.019884,-2.032533386
-0.01988,-2.03162196
-0.019876,-2.030747508
-0.019872,-2.029939763
-0.019868,-2.029222452
-0.019864,-2.028607681
-0.01986,-2.028091837
-0.019856,-2.027654699
-0.019852,-2.027263058
-0.019848,-2.026878518
-0.019844,-2.026467222
-0.01984,-2.026008408
-0.019836,-2.025499201
-0.019832,-2.024954277
-0.019828,-2.024400334
-0.019824,-2.02386692
-0.01982,-2.023376858
-0.019816,-2.022940355
-0.019812,-2.022555569
-0.019808,-2.022215123
-0.019804,-2.021914965
-0.0198,-2.021660763
-0.019796,-2.021468419
-0.019792,-2.021358276
-0.019788,-2.021345907
-0.019784,-2.021434188
-0.01978,-2.021610558
-0.019776,-2.021850278
-0.019772,-2.02212332
-0.019768,-2.022401297
-0.019764,-2.022661913
-0.01976,-2.022890338
-0.019756,-2.023078236
-0.019752,-2.023221436
-0.019748,-2.023317149
-0.019744,-2.023361832
-0.01974,-2.023350863
-0.019736,-2.023280518
-0.019732,-2.023151123
-0.019728,-2.022969081
-0.019724,-2.02274608
-0.01972,-2.022495799
-0.019716,-2.022230233
-0.019712,-2.02195762
-0.019708,-2.021682474
-0.019704,-2.021406822
-0.0197,-2.021131517
-0.019696,-2.020857149
-0.019692,-2.020584602
-0.019688,-2.020315226
-0.019684,-2.020050413
-0.01968,-2.019790684
-0.019676,-2.019534948
-0.019672,-2.019280754
-0.019668,-2.019025566
-0.019664,-2.018768108
-0.01966,-2.018508671
-0.019656,-2.018248068
-0.019652,-2.017986095
-0.019648,-2.017720814
-0.019644,-2.017449544
-0.01964,-2.01717123
-0.019636,-2.016888756
-0.019632,-2.016609522
-0.019628,-2.016343697
-0.019624,-2.01610106
-0.01962,-2.01588812
-0.019616,-2.015706781
-0.019612,-2.015554523
-0.019608,-2.015425148
-0.019604,-2.01530918
-0.0196,-2.015193954
-0.019596,-2.015064324
-0.019592,-2.014904816
-0.019588,-2.014702842
-0.019584,-2.014451485
-0.01958,-2.01415047
-0.019576,-2.013805246
-0.019572,-2.013425237
-0.019568,-2.013022348
-0.019564,-2.012610122
-0.01956,-2.012203381
-0.019556,-2.011818198
-0.019552,-2.011472153
-0.019548,-2.011184685
-0.019544,-2.010976942
-0.01954,-2.010870181
-0.019536,-2.010882025
-0.019532,-2.011021068
-0.019528,-2.011281817
-0.019524,-2.01164259
-0.01952,-2.012067794
-0.019516,-2.012513859
-0.019512,-2.01293668
-0.019508,-2.013298611
-0.019504,-2.013573993
-0.0195,-2.013752607
-0.019496,-2.01384016
-0.019492,-2.013855052
-0.019488,-2.013821679
-0.019484,-2.013761982
-0.01948,-2.013687831
-0.019476,-2.013596762
-0.019472,-2.013472674
-0.019468,-2.01329166
-0.019464,-2.013031406
-0.01946,-2.012681171
-0.019456,-2.012248914
-0.019452,-2.011763027
-0.019448,-2.011268172
-0.019444,-2.010816986
-0.01944,-2.010460891
-0.019436,-2.010243037
-0.019432,-2.01019462
-0.019428,-2.010333755
-0.019424,-2.010665072
-0.01942,-2.011178935
-0.019416,-2.011850702
-0.019412,-2.012641497
-0.019408,-2.013501721
-0.019404,-2.014377141
-0.0194,-2.015215909
-0.019396,-2.015974535
-0.019392,-2.016621683
-0.019388,-2.017139816
-0.019384,-2.017525081
-0.01938,-2.017785502
-0.019376,-2.01793733
-0.019372,-2.01799989
-0.019368,-2.017990118
-0.019364,-2.01791861
-0.01936,-2.017788797
-0.019356,-2.017599566
-0.019352,-2.017349989
-0.019348,-2.017043577
-0.019344,-2.0166898
-0.01934,-2.016302211
-0.019336,-2.015894418
-0.019332,-2.01547615
-0.019328,-2.015051213
-0.019324,-2.014617711
-0.01932,-2.014169746
-0.019316,-2.013699574
-0.019312,-2.013199758
-0.019308,-2.012665363
-0.019304,-2.012096162
-0.0193,-2.011498409
-0.019296,-2.010885384
-0.019292,-2.010276288
-0.019288,-2.009693782
-0.019284,-2.009161081
-0.01928,-2.008699437
-0.019276,-2.008326429
-0.019272,-2.008055265
-0.019268,-2.007895115
-0.019264,-2.007852226
-0.01926,-2.007930957
-0.019256,-2.008133712
-0.019252,-2.008459449
-0.019248,-2.008901631
-0.019244,-2.009447248
-0.01924,-2.010077987
-0.019236,-2.010773109
-0.019232,-2.011512312
-0.019228,-2.012276722
-0.019224,-2.013047527
-0.01922,-2.0138034
-0.019216,-2.014518617
-0.019212,-2.015163208
-0.019208,-2.015705186
-0.019204,-2.016113987
-0.0192,-2.016364152
-0.019196,-2.016438809
-0.019192,-2.016332705
-0.019188,-2.016054293
-0.019184,-2.015625932
-0.01918,-2.015081523
-0.019176,-2.014461989
-0.019172,-2.013810155
-0.019168,-2.013166737
-0.019164,-2.012568263
-0.01916,-2.01204651
-0.019156,-2.011628351
-0.019152,-2.011334871
-0.019148,-2.011179155
-0.019144,-2.011163152
-0.01914,-2.011275118
-0.019136,-2.011489561
-0.019132,-2.011770737
-0.019128,-2.012079029
-0.019124,-2.012378037
-0.01912,-2.012640093
-0.019116,-2.012848952
-0.019112,-2.01299983
-0.019108,-2.01309765
-0.019104,-2.013154183
-0.0191,-2.013184447
-0.019096,-2.01320282
-0.019092,-2.013219637
-0.019088,-2.013239254
-0.019084,-2.013260142
-0.01908,-2.013276997
-0.019076,-2.013284183
-0.019072,-2.013279413
-0.019068,-2.01326643
-0.019064,-2.013255555
-0.01906,-2.013261378
-0.019056,-2.013297697
-0.019052,-2.013370943
-0.019048,-2.013474483
-0.019044,-2.01358642
-0.01904,-2.013672427
-0.019036,-2.013692853
-0.019032,-2.013611479
-0.019028,-2.013403103
-0.019024,-2.013058674
-0.01902,-2.012588255
-0.019016,-2.012022313
-0.019012,-2.011410635
-0.019008,-2.010817275
-0.019004,-2.01031075
-0.019,-2.009951093
-0.018996,-2.009777725
-0.018992,-2.009802543
-0.018988,-2.010010741
-0.018984,-2.01036878
-0.01898,-2.010836081
-0.018976,-2.011376009
-0.018972,-2.011962655
-0.018968,-2.01258242
-0.018964,-2.013231647
-0.01896,-2.013912442
-0.018956,-2.014628282
-0.018952,-2.015380063
-0.018948,-2.016162909
-0.018944,-2.016964312
-0.01894,-2.01776441
-0.018936,-2.018538987
-0.018932,-2.019264786
-0.018928,-2.019925609
-0.018924,-2.020516994
-0.01892,-2.021047693
-0.018916,-2.021537233
-0.018912,-2.022010056
-0.018908,-2.022487718
-0.018904,-2.022981404
-0.0189,-2.023487393
-0.018896,-2.023987515
-0.018892,-2.024454742
-0.018888,-2.024861572
-0.018884,-2.025187278
-0.01888,-2.025420722
-0.018876,-2.025557952
-0.018872,-2.025596671
-0.018868,-2.025531131
-0.018864,-2.025350358
-0.01886,-2.02504039
-0.018856,-2.024589013
-0.018852,-2.023990524
-0.018848,-2.023248661
-0.018844,-2.022377046
-0.01884,-2.021397492
-0.018836,-2.020336923
-0.018832,-2.019223718
-0.018828,-2.018084315
-0.018824,-2.016941013
-0.01882,-2.015811648
-0.018816,-2.014711008
-0.018812,-2.013652742
-0.018808,-2.012650246
-0.018804,-2.011715883
-0.0188,-2.010859433
-0.018796,-2.010087308
-0.018792,-2.00940332
-0.018788,-2.008810342
-0.018784,-2.008311486
-0.01878,-2.007909939
-0.018776,-2.007607666
-0.018772,-2.007403965
-0.018768,-2.007294825
-0.018764,-2.007273443
-0.01876,-2.007331576
-0.018756,-2.007461093
-0.018752,-2.007655263
-0.018748,-2.007909555
-0.018744,-2.008221646
-0.01874,-2.008590008
-0.018736,-2.009010619
-0.018732,-2.009472501
-0.018728,-2.009954325
-0.018724,-2.010424721
-0.01872,-2.010847469
-0.018716,-2.011190135
-0.018712,-2.011432607
-0.018708,-2.011571958
-0.018704,-2.011621854
-0.0187,-2.011607241
-0.018696,-2.011556684
-0.018692,-2.01149502
-0.018688,-2.01143832
-0.018684,-2.01139229
-0.01868,-2.011354342
-0.018676,-2.011318457
-0.018672,-2.01128078
-0.018668,-2.011243358
-0.018664,-2.011214306
-0.01866,-2.01120465
-0.018656,-2.011223991
-0.018652,-2.01127773
-0.018648,-2.01136752
-0.018644,-2.011494581
-0.01864,-2.011663721
-0.018636,-2.0118851
-0.018632,-2.012171685
-0.018628,-2.012532717
-0.018624,-2.012966183
-0.01862,-2.013454392
-0.018616,-2.0139653
-0.018612,-2.014459119
-0.018608,-2.014896971
-0.018604,-2.01524783
-0.0186,-2.015491608
-0.018596,-2.015618644
-0.018592,-2.015627257
-0.018588,-2.015521
-0.018584,-2.015306702
-0.01858,-2.014993822
-0.018576,-2.014595115
-0.018572,-2.014127912
-0.018568,-2.013614873
-0.018564,-2.013083356
-0.01856,-2.01256333
-0.018556,-2.012084253
-0.018552,-2.011671383
-0.018548,-2.011342001
-0.018544,-2.01110241
-0.01854,-2.010946909
-0.018536,-2.010859567
-0.018532,-2.010818435
-0.018528,-2.010800635
-0.018524,-2.010786604
-0.01852,-2.010762733
-0.018516,-2.010722671
-0.018512,-2.010667597
-0.018508,-2.010604988
-0.018504,-2.010545236
-0.0185,-2.010496508
-0.018496,-2.010459831
-0.018492,-2.010426885
-0.018488,-2.010381951
-0.018484,-2.010307545
-0.01848,-2.010191519
-0.018476,-2.010032548
-0.018472,-2.009841396
-0.018468,-2.009637206
-0.018464,-2.009440584
-0.01846,-2.009266937
-0.018456,-2.009123097
-0.018452,-2.009007994
-0.018448,-2.008915758
-0.018444,-2.008838713
-0.01844,-2.008768589
-0.018436,-2.00869606
-0.018432,-2.008610069
-0.018428,-2.008498669
-0.018424,-2.008352219
-0.01842,-2.008168158
-0.018416,-2.007955266
-0.018412,-2.007735
-0.018408,-2.007538532
-0.018404,-2.007400061
-0.0184,-2.007348761
-0.018396,-2.007402397
-0.018392,-2.007564782
-0.018388,-2.007827343
-0.018384,-2.008173175
-0.01838,-2.008581166
-0.018376,-2.009028341
-0.018372,-2.009490159
-0.018368,-2.009939998
-0.018364,-2.010349585
-0.01836,-2.010691451
-0.018356,-2.01094315
-0.018352,-2.011092035
-0.018348,-2.011139206
-0.018344,-2.01110158
-0.01834,-2.011011219
-0.018336,-2.010911306
-0.018332,-2.010848785
-0.018328,-2.010864862
-0.018324,-2.01098569
-0.01832,-2.011215814
-0.018316,-2.011536389
-0.018312,-2.01190902
-0.018308,-2.012284636
-0.018304,-2.012615302
-0.0183,-2.012865561
-0.018296,-2.013019663
-0.018292,-2.013082472
-0.018288,-2.013074516
-0.018284,-2.013024109
-0.01828,-2.012960131
-0.018276,-2.012907555
-0.018272,-2.012885563
-0.018268,-2.012906687
-0.018264,-2.012975738
-0.01826,-2.013088681
-0.018256,-2.01323257
-0.018252,-2.013387486
-0.018248,-2.013530302
-0.018244,-2.01363902
-0.01824,-2.013696168
-0.018236,-2.013690374
-0.018232,-2.013616346
-0.018228,-2.013474218
-0.018224,-2.013269099
-0.01822,-2.013010635
-0.018216,-2.012711642
-0.018212,-2.012385123
-0.018208,-2.012040449
-0.018204,-2.011680965
-0.0182,-2.011305278
-0.018196,-2.010912575
-0.018192,-2.010509497
-0.018188,-2.010114498
-0.018184,-2.009756556
-0.01818,-2.009468153
-0.018176,-2.009275566
-0.018172,-2.009191014
-0.018168,-2.009210212
-0.018164,-2.009316099
-0.01816,-2.009486421
-0.018156,-2.009701183
-0.018152,-2.009946786
-0.018148,-2.010216243
-0.018144,-2.010507158
-0.01814,-2.010819761
-0.018136,-2.011156125
-0.018132,-2.011520217
-0.018128,-2.011917605
-0.018124,-2.012353759
-0.01812,-2.012830862
-0.018116,-2.013344181
-0.018112,-2.013879819
-0.018108,-2.014415396
-0.018104,-2.014923947
-0.0181,-2.015379864
-0.018096,-2.015764744
-0.018092,-2.016070983
-0.018088,-2.0163018
-0.018084,-2.016467796
-0.01808,-2.016581445
-0.018076,-2.016651429
-0.018072,-2.016678373
-0.018068,-2.016653025
-0.018064,-2.016557581
-0.01806,-2.016370353
-0.018056,-2.016072875
-0.018052,-2.01565726
-0.018048,-2.015131189
-0.018044,-2.014518649
-0.01804,-2.013856086
-0.018036,-2.013185133
-0.018032,-2.012544047
-0.018028,-2.011960368
-0.018024,-2.011447044
-0.01802,-2.011003328
-0.018016,-2.010620211
-0.018012,-2.010288372
-0.018008,-2.010005342
-0.018004,-2.009778559
-0.018,-2.009622735
-0.017996,-2.009552878
-0.017992,-2.009576557
-0.017988,-2.009689179
-0.017984,-2.009874078
-0.01798,-2.010106492
-0.017976,-2.010358794
-0.017972,-2.010604456
-0.017968,-2.010819864
-0.017964,-2.010984959
-0.01796,-2.011084321
-0.017956,-2.011109329
-0.017952,-2.011060413
-0.017948,-2.010947629
-0.017944,-2.010788421
-0.01794,-2.01060305
-0.017936,-2.010409674
-0.017932,-2.010221376
-0.017928,-2.010046396
-0.017924,-2.009891044
-0.01792,-2.009763496
-0.017916,-2.009676532
-0.017912,-2.009648112
-0.017908,-2.009699763
-0.017904,-2.009853354
-0.0179,-2.010127073
-0.017896,-2.010531418
-0.017892,-2.011065993
-0.017888,-2.011717746
-0.017884,-2.012461011
-0.01788,-2.013259496
-0.017876,-2.01407014
-0.017872,-2.014848612
-0.017868,-2.015555817
-0.017864,-2.016164028
-0.01786,-2.016660554
-0.017856,-2.017046777
-0.017852,-2.017331796
-0.017848,-2.017522465
-0.017844,-2.017614123
-0.01784,-2.017586856
-0.017836,-2.017410078
-0.017832,-2.017054269
-0.017828,-2.016505136
-0.017824,-2.015774201
-0.01782,-2.014901552
-0.017816,-2.013950079
-0.017812,-2.012993897
-0.017808,-2.012105297
-0.017804,-2.011343992
-0.0178,-2.010750441
-0.017796,-2.010342993
-0.017792,-2.010117588
-0.017788,-2.01004919
-0.017784,-2.010095223
-0.01778,-2.010201695
-0.017776,-2.010311893
-0.017772,-2.010376037
-0.017768,-2.010359465
-0.017764,-2.010247276
-0.01776,-2.010044517
-0.017756,-2.009772266
-0.017752,-2.00946084
-0.017748,-2.009141977
-0.017744,-2.008842251
-0.01774,-2.008579791
-0.017736,-2.008365202
-0.017732,-2.008205435
-0.017728,-2.008107578
-0.017724,-2.008079521
-0.01772,-2.0081266
-0.017716,-2.008246161
-0.017712,-2.008423391
-0.017708,-2.008631058
-0.017704,-2.008833821
-0.0177,-2.008995876
-0.017696,-2.009089613
-0.017692,-2.009102666
-0.017688,-2.009041126
-0.017684,-2.008927964
-0.01768,-2.008797364
-0.017676,-2.008687061
-0.017672,-2.008631121
-0.017668,-2.008654818
-0.017664,-2.008772088
-0.01766,-2.008985021
-0.017656,-2.009284568
-0.017652,-2.00965184
-0.017648,-2.010060138
-0.017644,-2.010478353
-0.01764,-2.010876155
-0.017636,-2.011230113
-0.017632,-2.011528438
-0.017628,-2.011771837
-0.017624,-2.011969751
-0.01762,-2.012134
-0.017616,-2.012273421
-0.017612,-2.012392121
-0.017608,-2.012491274
-0.017604,-2.012572358
-0.0176,-2.012639565
-0.017596,-2.012700514
-0.017592,-2.012765718
-0.017588,-2.012847452
-0.017584,-2.012958012
-0.01758,-2.013106822
-0.017576,-2.013296336
-0.017572,-2.013517858
-0.017568,-2.01374942
-0.017564,-2.013957537
-0.01756,-2.014103301
-0.017556,-2.014151362
-0.017552,-2.014079044
-0.017548,-2.013882484
-0.017544,-2.013577656
-0.01754,-2.013196129
-0.017536,-2.012777434
-0.017532,-2.01236083
-0.017528,-2.011978634
-0.017524,-2.011652023
-0.01752,-2.011389459
-0.017516,-2.011187865
-0.017512,-2.011036394
-0.017508,-2.010921816
-0.017504,-2.01083361
-0.0175,-2.010766812
-0.017496,-2.010721818
-0.017492,-2.01070188
-0.017488,-2.010709915
-0.017484,-2.010745918
-0.01748,-2.010805249
-0.017476,-2.010877554
-0.017472,-2.010946637
-0.017468,-2.010992399
-0.017464,-2.01099566
-0.01746,-2.010944874
-0.017456,-2.010841718
-0.017452,-2.010702092
-0.017448,-2.010551023
-0.017444,-2.010413301
-0.01744,-2.01030413
-0.017436,-2.010224081
-0.017432,-2.0101602
-0.017428,-2.010092001
-0.017424,-2.009999208
-0.01742,-2.009868354
-0.017416,-2.009696768
-0.017412,-2.009493772
-0.017408,-2.009279229
-0.017404,-2.009079574
-0.0174,-2.008921747
-0.017396,-2.008826405
-0.017392,-2.008802531
-0.017388,-2.008845408
-0.017384,-2.008938458
-0.01738,-2.009057806
-0.017376,-2.009177682
-0.017372,-2.009275205
-0.017368,-2.009334044
-0.017364,-2.009346869
-0.01736,-2.009316432
-0.017356,-2.009254807
-0.017352,-2.009180506
-0.017348,-2.009113859
-0.017344,-2.009071831
-0.01734,-2.00906377
-0.017336,-2.009089208
-0.017332,-2.009138056
-0.017328,-2.00919284
-0.017324,-2.009232322
-0.01732,-2.00923576
-0.017316,-2.009186967
-0.017312,-2.009077191
-0.017308,-2.008906034
-0.017304,-2.008680372
-0.0173,-2.008412126
-0.017296,-2.008116011
-0.017292,-2.007807723
-0.017288,-2.00750229
-0.017284,-2.00721225
-0.01728,-2.00694591
-0.017276,-2.006706372
-0.017272,-2.006491821
-0.017268,-2.006297022
-0.017264,-2.006115587
-0.01726,-2.005942566
-0.017256,-2.005776889
-0.017252,-2.005623019
-0.017248,-2.005491017
-0.017244,-2.005394548
-0.01724,-2.005347359
-0.017236,-2.005359735
-0.017232,-2.005436625
-0.017228,-2.005578101
-0.017224,-2.005781368
-0.01722,-2.00604278
-0.017216,-2.00635864
-0.017212,-2.006724468
-0.017208,-2.007133131
-0.017204,-2.007572705
-0.0172,-2.008025183
-0.017196,-2.008467194
-0.017192,-2.008873334
-0.017188,-2.009221388
-0.017184,-2.009497366
-0.01718,-2.00969784
-0.017176,-2.009828313
-0.017172,-2.009898411
-0.017168,-2.009916318
-0.017164,-2.009885023
-0.01716,-2.009801721
-0.017156,-2.009660104
-0.017152,-2.009454174
-0.017148,-2.009181978
-0.017144,-2.008847875
-0.01714,-2.008462374
-0.017136,-2.008039254
-0.017132,-2.007590815
-0.017128,-2.007123484
-0.017124,-2.006636421
-0.01712,-2.006124561
-0.017116,-2.005585099
-0.017112,-2.00502429
-0.017108,-2.004461027
-0.017104,-2.003925128
-0.0171,-2.003450799
-0.017096,-2.003067857
-0.017092,-2.002794247
-0.017088,-2.002632829
-0.017084,-2.002573587
-0.01708,-2.002600086
-0.017076,-2.002697124
-0.017072,-2.002856036
-0.017068,-2.003075504
-0.017064,-2.003358077
-0.01706,-2.00370474
-0.017056,-2.004110466
-0.017052,-2.004562626
-0.017048,-2.005042231
-0.017044,-2.00552666
-0.01704,-2.005992546
-0.017036,-2.00641824
-0.017032,-2.006785888
-0.017028,-2.007083124
-0.017024,-2.007304179
-0.01702,-2.007450351
-0.017016,-2.007529978
-0.017012,-2.007558077
-0.017008,-2.007555404
-0.017004,-2.007546498
-0.017,-2.007556568
-0.016996,-2.007607829
-0.016992,-2.00771643
-0.016988,-2.007890861
-0.016984,-2.008131723
-0.01698,-2.008431819
-0.016976,-2.008775455
-0.016972,-2.009136979
-0.016968,-2.009480295
-0.016964,-2.009761856
-0.01696,-2.009938355
-0.016956,-2.009977507
-0.016952,-2.009867736
-0.016948,-2.009622317
-0.016944,-2.009275788
-0.01694,-2.008874157
-0.016936,-2.008463141
-0.016932,-2.008078975
-0.016928,-2.007744376
-0.016924,-2.007469448
-0.01692,-2.00725549
-0.016916,-2.007099287
-0.016912,-2.006996179
-0.016908,-2.006941158
-0.016904,-2.006928132
-0.0169,-2.006948185
-0.016896,-2.006988165
-0.016892,-2.007030897
-0.016888,-2.007057679
-0.016884,-2.007052698
-0.01688,-2.007007943
-0.016876,-2.006926652
-0.016872,-2.006823637
-0.016868,-2.006722092
-0.016864,-2.006648063
-0.01686,-2.006624686
-0.016856,-2.006667934
-0.016852,-2.00678454
-0.016848,-2.006971848
-0.016844,-2.007219265
-0.01684,-2.007511182
-0.016836,-2.007830993
-0.016832,-2.008165085
-0.016828,-2.008505079
-0.016824,-2.008847141
-0.01682,-2.009188752
-0.016816,-2.009524877
-0.016812,-2.009845915
-0.016808,-2.010138754
-0.016804,-2.010390387
-0.0168,-2.010592012
-0.016796,-2.010741167
-0.016792,-2.010840627
-0.016788,-2.010894622
-0.016784,-2.010904442
-0.01678,-2.010865758
-0.016776,-2.010768959
-0.016772,-2.010602236
-0.016768,-2.010355862
-0.016764,-2.010025733
-0.01676,-2.009614889
-0.016756,-2.009132865
-0.016752,-2.008593628
-0.016748,-2.008013141
-0.016744,-2.007407265
-0.01674,-2.006790487
-0.016736,-2.006175819
-0.016732,-2.005576015
-0.016728,-2.005005591
-0.016724,-2.004482391
-0.01672,-2.004027152
-0.016716,-2.003660348
-0.016712,-2.003397281
-0.016708,-2.003243905
-0.016704,-2.003195894
-0.0167,-2.003241599
-0.016696,-2.003367132
-0.016692,-2.003560657
-0.016688,-2.003814067
-0.016684,-2.004122501
-0.01668,-2.004483672
-0.016676,-2.004898607
-0.016672,-2.005373568
-0.016668,-2.00592125
-0.016664,-2.006559189
-0.01666,-2.007304839
-0.016656,-2.008168797
-0.016652,-2.009148815
-0.016648,-2.010226872
-0.016644,-2.011370164
-0.01664,-2.012535418
-0.016636,-2.013675034
-0.016632,-2.014743286
-0.016628,-2.01570107
-0.016624,-2.016518322
-0.01662,-2.017174162
-0.016616,-2.017655546
-0.016612,-2.017955482
-0.016608,-2.018071709
-0.016604,-2.018006338
-0.0166,-2.017766441
-0.016596,-2.017365078
-0.016592,-2.01682185
-0.016588,-2.016162079
-0.016584,-2.015414239
-0.01658,-2.014606165
-0.016576,-2.013761295
-0.016572,-2.012896325
-0.016568,-2.012021092
-0.016564,-2.011140643
-0.01656,-2.010258702
-0.016556,-2.009381204
-0.016552,-2.008518617
-0.016548,-2.007686512
-0.016544,-2.006905086
-0.01654,-2.006198825
-0.016536,-2.005596711
-0.016532,-2.005131823
-0.016528,-2.004838475
-0.016524,-2.004746141
-0.01652,-2.004871628
-0.016516,-2.005212672
-0.016512,-2.005745956
-0.016508,-2.006430645
-0.016504,-2.00721617
-0.0165,-2.008051408
-0.016496,-2.008892245
-0.016492,-2.00970555
-0.016488,-2.010469229
-0.016484,-2.011169458
-0.01648,-2.01179679
-0.016476,-2.012342494
