Z-coordinate,Electric Potential
-0.02,-2.001507659
-0.019996,-2.016485576
-0.019992,-2.024798895
-0.019988,-2.02895334
-0.019984,-2.03104651
-0.01998,-2.032277103
-0.019976,-2.033197774
-0.019972,-2.034025895
-0.019968,-2.034830659
-0.019964,-2.035623216
-0.01996,-2.036395636
-0.019956,-2.03713636
-0.019952,-2.037835587
-0.019948,-2.038486592
-0.019944,-2.039085549
-0.01994,-2.039630925
-0.019936,-2.040122837
-0.019932,-2.040562517
-0.019928,-2.04095191
-0.019924,-2.041293381
-0.01992,-2.041589514
-0.019916,-2.041842977
-0.019912,-2.042056435
-0.019908,-2.042232494
-0.019904,-2.042373664
-0.0199,-2.042482346
-0.019896,-2.042560813
-0.019892,-2.042611214
-0.019888,-2.042635568
-0.019884,-2.042635769
-0.01988,-2.042613589
-0.019876,-2.042570681
-0.019872,-2.042508585
-0.019868,-2.042428736
-0.019864,-2.042332462
-0.01986,-2.042220998
-0.019856,-2.042095484
-0.019852,-2.041956977
-0.019848,-2.041806452
-0.019844,-2.041644809
-0.01984,-2.041472878
-0.019836,-2.041291425
-0.019832,-2.041101159
-0.019828,-2.040902732
-0.019824,-2.04069675
-0.01982,-2.040483773
-0.019816,-2.040264323
-0.019812,-2.040038887
-0.019808,-2.039807918
-0.019804,-2.039571844
-0.0198,-2.039331067
-0.019796,-2.039085969
-0.019792,-2.038836912
-0.019788,-2.038584244
-0.019784,-2.038328298
-0.01978,-2.038069397
-0.019776,-2.037807855
-0.019772,-2.037543979
-0.019768,-2.037278071
-0.019764,-2.037010431
-0.01976,-2.036741358
-0.019756,-2.036471151
-0.019752,-2.036200114
-0.019748,-2.035928554
-0.019744,-2.035656785
-0.01974,-2.035385128
-0.019736,-2.035113912
-0.019732,-2.034843477
-0.019728,-2.034574173
-0.019724,-2.034306358
-0.01972,-2.034040402
-0.019716,-2.033776684
-0.019712,-2.03351559
-0.019708,-2.033257513
-0.019704,-2.03300285
-0.0197,-2.032752002
-0.019696,-2.032505367
-0.019692,-2.03226334
-0.019688,-2.032026309
-0.019684,-2.031794651
-0.01968,-2.031568728
-0.019676,-2.031348886
-0.019672,-2.031135448
-0.019668,-2.030928713
-0.019664,-2.030728952
-0.01966,-2.030536406
-0.019656,-2.030351283
-0.019652,-2.030173757
-0.019648,-2.030003966
-0.019644,-2.02984201
-0.01964,-2.029687952
-0.019636,-2.029541819
-0.019632,-2.029403599
-0.019628,-2.029273246
-0.019624,-2.029150678
-0.01962,-2.02903578
-0.019616,-2.028928403
-0.019612,-2.028828373
-0.019608,-2.028735483
-0.019604,-2.028649502
-0.0196,-2.028570178
-0.019596,-2.028497234
-0.019592,-2.028430376
-0.019588,-2.028369291
-0.019584,-2.028313654
-0.01958,-2.028263124
-0.019576,-2.028217351
-0.019572,-2.028175975
-0.019568,-2.028138631
-0.019564,-2.028104949
-0.01956,-2.028074554
-0.019556,-2.028047074
-0.019552,-2.028022135
-0.019548,-2.027999369
-0.019544,-2.027978412
-0.01954,-2.027958909
-0.019536,-2.027940514
-0.019532,-2.02792289
-0.019528,-2.027905716
-0.019524,-2.027888684
-0.01952,-2.027871502
-0.019516,-2.027853895
-0.019512,-2.027835605
-0.019508,-2.027816393
-0.019504,-2.027796036
-0.0195,-2.027774334
-0.019496,-2.0277511
-0.019492,-2.027726169
-0.019488,-2.027699389
-0.019484,-2.027670627
-0.01948,-2.027639762
-0.019476,-2.02760669
-0.019472,-2.027571316
-0.019468,-2.027533559
-0.019464,-2.027493346
-0.01946,-2.027450613
-0.019456,-2.027405304
-0.019452,-2.027357367
-0.019448,-2.02730676
-0.019444,-2.027253442
-0.01944,-2.027197377
-0.019436,-2.027138534
-0.019432,-2.027076887
-0.019428,-2.02701241
-0.019424,-2.026945084
-0.01942,-2.026874896
-0.019416,-2.026801837
-0.019412,-2.026725903
-0.019408,-2.0266471
-0.019404,-2.026565442
-0.0194,-2.026480953
-0.019396,-2.026393666
-0.019392,-2.026303629
-0.019388,-2.026210902
-0.019384,-2.026115561
-0.01938,-2.026017696
-0.019376,-2.025917413
-0.019372,-2.025814837
-0.019368,-2.025710109
-0.019364,-2.025603388
-0.01936,-2.025494849
-0.019356,-2.025384686
-0.019352,-2.025273111
-0.019348,-2.025160349
-0.019344,-2.025046641
-0.01934,-2.024932244
-0.019336,-2.024817427
-0.019332,-2.02470247
-0.019328,-2.024587662
-0.019324,-2.024473302
-0.01932,-2.024359695
-0.019316,-2.02424715
-0.019312,-2.024135979
-0.019308,-2.024026496
-0.019304,-2.023919012
-0.0193,-2.023813836
-0.019296,-2.023711272
-0.019292,-2.023611617
-0.019288,-2.023515161
-0.019284,-2.023422179
-0.01928,-2.023332939
-0.019276,-2.023247691
-0.019272,-2.023166672
-0.019268,-2.0230901
-0.019264,-2.023018174
-0.01926,-2.022951074
-0.019256,-2.022888959
-0.019252,-2.022831964
-0.019248,-2.022780201
-0.019244,-2.02273376
-0.01924,-2.022692706
-0.019236,-2.02265708
-0.019232,-2.022626897
-0.019228,-2.022602152
-0.019224,-2.022582817
-0.01922,-2.022568841
-0.019216,-2.022560156
-0.019212,-2.022556673
-0.019208,-2.022558289
-0.019204,-2.022564884
-0.0192,-2.022576328
-0.019196,-2.022592476
-0.019192,-2.022613176
-0.019188,-2.022638266
-0.019184,-2.022667578
-0.01918,-2.022700934
-0.019176,-2.022738152
-0.019172,-2.022779044
-0.019168,-2.022823413
-0.019164,-2.022871059
-0.01916,-2.022921771
-0.019156,-2.022975333
-0.019152,-2.02303152
-0.019148,-2.023090097
-0.019144,-2.023150822
-0.01914,-2.023213441
-0.019136,-2.023277692
-0.019132,-2.023343303
-0.019128,-2.023409996
-0.019124,-2.023477481
-0.01912,-2.023545466
-0.019116,-2.023613651
-0.019112,-2.023681735
-0.019108,-2.023749415
-0.019104,-2.023816391
-0.0191,-2.023882366
-0.019096,-2.023947052
-0.019092,-2.02401017
-0.019088,-2.024071453
-0.019084,-2.024130652
-0.01908,-2.024187535
-0.019076,-2.024241895
-0.019072,-2.024293546
-0.019068,-2.024342334
-0.019064,-2.024388131
-0.01906,-2.024430844
-0.019056,-2.024470414
-0.019052,-2.024506818
-0.019048,-2.024540068
-0.019044,-2.024570215
-0.01904,-2.024597349
-0.019036,-2.024621593
-0.019032,-2.02464311
-0.019028,-2.024662094
-0.019024,-2.024678772
-0.01902,-2.024693397
-0.019016,-2.024706248
-0.019012,-2.024717623
-0.019008,-2.024727837
-0.019004,-2.024737212
-0.019,-2.024746075
-0.018996,-2.024754752
-0.018992,-2.02476356
-0.018988,-2.024772803
-0.018984,-2.024782764
-0.01898,-2.024793702
-0.018976,-2.024805844
-0.018972,-2.024819382
-0.018968,-2.02483447
-0.018964,-2.024851215
-0.01896,-2.024869684
-0.018956,-2.024889893
-0.018952,-2.02491181
-0.018948,-2.024935358
-0.018944,-2.02496041
-0.01894,-2.024986796
-0.018936,-2.025014306
-0.018932,-2.025042688
-0.018928,-2.02507166
-0.018924,-2.02510091
-0.01892,-2.025130102
-0.018916,-2.025158886
-0.018912,-2.025186897
-0.018908,-2.025213768
-0.018904,-2.025239131
-0.0189,-2.025262626
-0.018896,-2.025283902
-0.018892,-2.02530263
-0.018888,-2.025318497
-0.018884,-2.025331221
-0.01888,-2.025340544
-0.018876,-2.025346244
-0.018872,-2.025348132
-0.018868,-2.025346054
-0.018864,-2.025339894
-0.01886,-2.025329575
-0.018856,-2.025315058
-0.018852,-2.025296343
-0.018848,-2.025273467
-0.018844,-2.025246506
-0.01884,-2.02521557
-0.018836,-2.025180807
-0.018832,-2.025142396
-0.018828,-2.025100548
-0.018824,-2.025055504
-0.01882,-2.02500753
-0.018816,-2.024956916
-0.018812,-2.024903976
-0.018808,-2.024849038
-0.018804,-2.024792446
-0.0188,-2.024734554
-0.018796,-2.024675725
-0.018792,-2.024616321
-0.018788,-2.024556707
-0.018784,-2.024497242
-0.01878,-2.024438275
-0.018776,-2.024380145
-0.018772,-2.024323174
-0.018768,-2.024267666
-0.018764,-2.024213902
-0.01876,-2.024162141
-0.018756,-2.024112613
-0.018752,-2.024065523
-0.018748,-2.024021047
-0.018744,-2.023979331
-0.01874,-2.023940492
-0.018736,-2.023904617
-0.018732,-2.023871768
-0.018728,-2.023841976
-0.018724,-2.023815249
-0.01872,-2.02379157
-0.018716,-2.023770902
-0.018712,-2.023753185
-0.018708,-2.023738343
-0.018704,-2.023726284
-0.0187,-2.023716901
-0.018696,-2.023710078
-0.018692,-2.023705685
-0.018688,-2.023703584
-0.018684,-2.023703632
-0.01868,-2.023705675
-0.018676,-2.023709556
-0.018672,-2.023715112
-0.018668,-2.023722173
-0.018664,-2.023730568
-0.01866,-2.023740116
-0.018656,-2.023750634
-0.018652,-2.023761933
-0.018648,-2.02377382
-0.018644,-2.023786095
-0.01864,-2.023798554
-0.018636,-2.023810989
-0.018632,-2.023823186
-0.018628,-2.02383493
-0.018624,-2.023846003
-0.01862,-2.023856188
-0.018616,-2.023865266
-0.018612,-2.023873024
-0.018608,-2.023879253
-0.018604,-2.023883748
-0.0186,-2.023886318
-0.018596,-2.02388678
-0.018592,-2.023884966
-0.018588,-2.023880725
-0.018584,-2.023873925
-0.01858,-2.023864452
-0.018576,-2.023852218
-0.018572,-2.023837158
-0.018568,-2.023819234
-0.018564,-2.023798435
-0.01856,-2.023774782
-0.018556,-2.023748322
-0.018552,-2.023719135
-0.018548,-2.023687333
-0.018544,-2.023653055
-0.01854,-2.023616473
-0.018536,-2.023577787
-0.018532,-2.023537224
-0.018528,-2.023495036
-0.018524,-2.023451499
-0.01852,-2.023406908
-0.018516,-2.023361575
-0.018512,-2.023315828
-0.018508,-2.023270002
-0.018504,-2.023224439
-0.0185,-2.023179483
-0.018496,-2.023135477
-0.018492,-2.023092757
-0.018488,-2.02305165
-0.018484,-2.023012467
-0.01848,-2.022975504
-0.018476,-2.022941034
-0.018472,-2.022909308
-0.018468,-2.022880549
-0.018464,-2.02285495
-0.01846,-2.022832674
-0.018456,-2.02281385
-0.018452,-2.022798572
-0.018448,-2.022786901
-0.018444,-2.022778861
-0.01844,-2.022774438
-0.018436,-2.022773588
-0.018432,-2.022776229
-0.018428,-2.022782247
-0.018424,-2.022791499
-0.01842,-2.022803811
-0.018416,-2.022818985
-0.018412,-2.022836798
-0.018408,-2.022857007
-0.018404,-2.022879353
-0.0184,-2.022903563
-0.018396,-2.022929354
-0.018392,-2.022956437
-0.018388,-2.022984519
-0.018384,-2.023013308
-0.01838,-2.023042517
-0.018376,-2.023071863
-0.018372,-2.023101077
-0.018368,-2.023129897
-0.018364,-2.023158081
-0.01836,-2.023185401
-0.018356,-2.023211646
-0.018352,-2.023236627
-0.018348,-2.023260175
-0.018344,-2.02328214
-0.01834,-2.023302395
-0.018336,-2.023320833
-0.018332,-2.023337368
-0.018328,-2.023351932
-0.018324,-2.023364476
-0.01832,-2.023374968
-0.018316,-2.023383389
-0.018312,-2.023389737
-0.018308,-2.023394019
-0.018304,-2.023396251
-0.0183,-2.02339646
-0.018296,-2.023394675
-0.018292,-2.023390932
-0.018288,-2.023385271
-0.018284,-2.02337773
-0.01828,-2.023368352
-0.018276,-2.023357176
-0.018272,-2.023344244
-0.018268,-2.023329594
-0.018264,-2.023313266
-0.01826,-2.023295298
-0.018256,-2.023275728
-0.018252,-2.023254595
-0.018248,-2.023231941
-0.018244,-2.023207809
-0.01824,-2.023182248
-0.018236,-2.023155312
-0.018232,-2.02312706
-0.018228,-2.023097562
-0.018224,-2.023066896
-0.01822,-2.023035149
-0.018216,-2.023002422
-0.018212,-2.022968824
-0.018208,-2.02293448
-0.018204,-2.022899525
-0.0182,-2.022864107
-0.018196,-2.022828383
-0.018192,-2.022792523
-0.018188,-2.022756705
-0.018184,-2.022721112
-0.01818,-2.022685935
-0.018176,-2.022651366
-0.018172,-2.022617599
-0.018168,-2.022584825
-0.018164,-2.022553229
-0.01816,-2.022522991
-0.018156,-2.02249428
-0.018152,-2.022467251
-0.018148,-2.022442047
-0.018144,-2.02241879
-0.01814,-2.022397588
-0.018136,-2.022378526
-0.018132,-2.022361667
-0.018128,-2.022347054
-0.018124,-2.022334706
-0.01812,-2.02232462
-0.018116,-2.022316771
-0.018112,-2.022311113
-0.018108,-2.022307577
-0.018104,-2.022306079
-0.0181,-2.022306513
-0.018096,-2.02230876
-0.018092,-2.022312687
-0.018088,-2.022318149
-0.018084,-2.022324994
-0.01808,-2.022333062
-0.018076,-2.02234219
-0.018072,-2.022352215
-0.018068,-2.022362977
-0.018064,-2.02237432
-0.01806,-2.022386096
-0.018056,-2.022398168
-0.018052,-2.022410411
-0.018048,-2.022422715
-0.018044,-2.022434985
-0.01804,-2.022447144
-0.018036,-2.022459133
-0.018032,-2.02247091
-0.018028,-2.022482449
-0.018024,-2.02249374
-0.01802,-2.022504788
-0.018016,-2.022515607
-0.018012,-2.02252622
-0.018008,-2.022536654
-0.018004,-2.022546939
-0.018,-2.022557099
-0.017996,-2.022567151
-0.017992,-2.022577103
-0.017988,-2.022586944
-0.017984,-2.022596646
-0.01798,-2.022606157
-0.017976,-2.0226154
-0.017972,-2.022624272
-0.017968,-2.022632637
-0.017964,-2.022640335
-0.01796,-2.022647172
-0.017956,-2.02265293
-0.017952,-2.022657361
-0.017948,-2.022660197
-0.017944,-2.022661148
-0.01794,-2.02265991
-0.017936,-2.022656169
-0.017932,-2.022649602
-0.017928,-2.022639891
-0.017924,-2.022626722
-0.01792,-2.022609791
-0.017916,-2.022588814
-0.017912,-2.022563531
-0.017908,-2.022533708
-0.017904,-2.022499147
-0.0179,-2.022459686
-0.017896,-2.022415205
-0.017892,-2.022365628
-0.017888,-2.022310924
-0.017884,-2.022251113
-0.01788,-2.02218626
-0.017876,-2.022116479
-0.017872,-2.022041932
-0.017868,-2.021962823
-0.017864,-2.021879403
-0.01786,-2.021791957
-0.017856,-2.02170081
-0.017852,-2.021606315
-0.017848,-2.021508854
-0.017844,-2.021408827
-0.01784,-2.021306654
-0.017836,-2.021202763
-0.017832,-2.021097588
-0.017828,-2.020991563
-0.017824,-2.020885114
-0.01782,-2.02077866
-0.017816,-2.020672601
-0.017812,-2.020567317
-0.017808,-2.020463164
-0.017804,-2.020360469
-0.0178,-2.020259527
-0.017796,-2.020160596
-0.017792,-2.020063899
-0.017788,-2.01996962
-0.017784,-2.019877902
-0.01778,-2.019788845
-0.017776,-2.019702512
-0.017772,-2.019618922
-0.017768,-2.019538058
-0.017764,-2.019459863
-0.01776,-2.019384248
-0.017756,-2.01931109
-0.017752,-2.01924024
-0.017748,-2.019171523
-0.017744,-2.019104744
-0.01774,-2.019039693
-0.017736,-2.01897615
-0.017732,-2.018913886
-0.017728,-2.018852675
-0.017724,-2.018792291
-0.01772,-2.018732519
-0.017716,-2.018673154
-0.017712,-2.018614008
-0.017708,-2.018554913
-0.017704,-2.018495724
-0.0177,-2.018436319
-0.017696,-2.018376605
-0.017692,-2.018316515
-0.017688,-2.018256012
-0.017684,-2.018195088
-0.01768,-2.018133764
-0.017676,-2.018072088
-0.017672,-2.018010136
-0.017668,-2.017948009
-0.017664,-2.017885831
-0.01766,-2.017823749
-0.017656,-2.017761929
-0.017652,-2.017700554
-0.017648,-2.01763982
-0.017644,-2.017579935
-0.01764,-2.017521116
-0.017636,-2.017463585
-0.017632,-2.017407564
-0.017628,-2.017353277
-0.017624,-2.017300941
-0.01762,-2.017250765
-0.017616,-2.017202951
-0.017612,-2.017157682
-0.017608,-2.017115127
-0.017604,-2.017075436
-0.0176,-2.017038735
-0.017596,-2.017005129
-0.017592,-2.016974695
-0.017588,-2.016947485
-0.017584,-2.016923524
-0.01758,-2.016902809
-0.017576,-2.016885309
-0.017572,-2.016870969
-0.017568,-2.016859708
-0.017564,-2.016851421
-0.01756,-2.016845984
-0.017556,-2.016843254
-0.017552,-2.016843075
-0.017548,-2.016845276
-0.017544,-2.016849682
-0.01754,-2.016856111
-0.017536,-2.016864382
-0.017532,-2.016874315
-0.017528,-2.016885739
-0.017524,-2.016898492
-0.01752,-2.016912424
-0.017516,-2.016927403
-0.017512,-2.016943312
-0.017508,-2.016960055
-0.017504,-2.016977557
-0.0175,-2.016995763
-0.017496,-2.017014643
-0.017492,-2.017034186
-0.017488,-2.017054401
-0.017484,-2.01707532
-0.01748,-2.017096989
-0.017476,-2.017119471
-0.017472,-2.017142845
-0.017468,-2.017167196
-0.017464,-2.017192621
-0.01746,-2.017219221
-0.017456,-2.017247097
-0.017452,-2.017276353
-0.017448,-2.017307087
-0.017444,-2.017339391
-0.01744,-2.017373349
-0.017436,-2.017409035
-0.017432,-2.017446508
-0.017428,-2.017485816
-0.017424,-2.017526991
-0.01742,-2.017570048
-0.017416,-2.017614987
-0.017412,-2.017661792
-0.017408,-2.017710431
-0.017404,-2.017760857
-0.0174,-2.017813008
-0.017396,-2.017866811
-0.017392,-2.01792218
-0.017388,-2.017979019
-0.017384,-2.018037222
-0.01738,-2.01809668
-0.017376,-2.018157274
-0.017372,-2.018218882
-0.017368,-2.018281381
-0.017364,-2.018344644
-0.01736,-2.018408543
-0.017356,-2.018472951
-0.017352,-2.01853774
-0.017348,-2.018602784
-0.017344,-2.018667954
-0.01734,-2.018733127
-0.017336,-2.018798174
-0.017332,-2.01886297
-0.017328,-2.018927388
-0.017324,-2.018991299
-0.01732,-2.019054573
-0.017316,-2.019117078
-0.017312,-2.019178679
-0.017308,-2.019239238
-0.017304,-2.019298616
-0.0173,-2.019356669
-0.017296,-2.019413252
-0.017292,-2.01946822
-0.017288,-2.019521423
-0.017284,-2.019572714
-0.01728,-2.019621945
-0.017276,-2.019668971
-0.017272,-2.01971365
-0.017268,-2.019755843
-0.017264,-2.019795418
-0.01726,-2.019832251
-0.017256,-2.019866225
-0.017252,-2.019897232
-0.017248,-2.019925177
-0.017244,-2.019949975
-0.01724,-2.019971555
-0.017236,-2.019989858
-0.017232,-2.02000484
-0.017228,-2.020016471
-0.017224,-2.020024737
-0.01722,-2.020029637
-0.017216,-2.020031186
-0.017212,-2.020029411
-0.017208,-2.020024356
-0.017204,-2.020016075
-0.0172,-2.020004636
-0.017196,-2.019990117
-0.017192,-2.019972607
-0.017188,-2.019952204
-0.017184,-2.019929012
-0.01718,-2.019903142
-0.017176,-2.01987471
-0.017172,-2.019843835
-0.017168,-2.019810638
-0.017164,-2.019775241
-0.01716,-2.019737762
-0.017156,-2.019698319
-0.017152,-2.019657026
-0.017148,-2.019613991
-0.017144,-2.019569317
-0.01714,-2.0195231
-0.017136,-2.019475429
-0.017132,-2.019426382
-0.017128,-2.019376033
-0.017124,-2.019324444
-0.01712,-2.019271671
-0.017116,-2.019217763
-0.017112,-2.019162762
-0.017108,-2.019106704
-0.017104,-2.019049621
-0.0171,-2.018991546
-0.017096,-2.018932507
-0.017092,-2.018872539
-0.017088,-2.018811676
-0.017084,-2.018749962
-0.01708,-2.018687448
-0.017076,-2.018624196
-0.017072,-2.018560279
-0.017068,-2.018495783
-0.017064,-2.018430811
-0.01706,-2.01836548
-0.017056,-2.018299922
-0.017052,-2.018234286
-0.017048,-2.018168734
-0.017044,-2.018103442
-0.01704,-2.018038598
-0.017036,-2.017974401
-0.017032,-2.017911055
-0.017028,-2.017848773
-0.017024,-2.017787765
-0.01702,-2.017728247
-0.017016,-2.017670427
-0.017012,-2.017614511
-0.017008,-2.017560697
-0.017004,-2.017509172
-0.017,-2.017460113
-0.016996,-2.017413687
-0.016992,-2.017370044
-0.016988,-2.017329325
-0.016984,-2.017291654
-0.01698,-2.017257145
-0.016976,-2.017225898
-0.016972,-2.017198001
-0.016968,-2.017173534
-0.016964,-2.017152566
-0.01696,-2.017135157
-0.016956,-2.017121359
-0.016952,-2.01711122
-0.016948,-2.017104778
-0.016944,-2.017102068
-0.01694,-2.017103117
-0.016936,-2.017107946
-0.016932,-2.01711657
-0.016928,-2.017128996
-0.016924,-2.01714522
-0.01692,-2.017165229
-0.016916,-2.017188998
-0.016912,-2.017216488
-0.016908,-2.017247645
-0.016904,-2.017282397
-0.0169,-2.017320655
-0.016896,-2.017362308
-0.016892,-2.017407225
-0.016888,-2.017455254
-0.016884,-2.01750622
-0.01688,-2.017559924
-0.016876,-2.017616148
-0.016872,-2.017674649
-0.016868,-2.017735169
-0.016864,-2.017797427
-0.01686,-2.017861128
-0.016856,-2.017925965
-0.016852,-2.017991619
-0.016848,-2.018057763
-0.016844,-2.018124068
-0.01684,-2.018190204
-0.016836,-2.018255844
-0.016832,-2.018320668
-0.016828,-2.018384367
-0.016824,-2.018446647
-0.01682,-2.018507228
-0.016816,-2.01856585
-0.016812,-2.018622277
-0.016808,-2.018676293
-0.016804,-2.018727708
-0.0168,-2.018776357
-0.016796,-2.018822101
-0.016792,-2.018864825
-0.016788,-2.018904439
-0.016784,-2.018940875
-0.01678,-2.018974087
-0.016776,-2.019004049
-0.016772,-2.019030751
-0.016768,-2.019054198
-0.016764,-2.019074407
-0.01676,-2.019091403
-0.016756,-2.019105218
-0.016752,-2.019115889
-0.016748,-2.019123454
-0.016744,-2.019127948
-0.01674,-2.019129404
-0.016736,-2.019127853
-0.016732,-2.019123316
-0.016728,-2.019115809
-0.016724,-2.019105341
-0.01672,-2.019091913
-0.016716,-2.019075517
-0.016712,-2.019056139
-0.016708,-2.01903376
-0.016704,-2.019008353
-0.0167,-2.018979888
-0.016696,-2.018948332
-0.016692,-2.018913652
-0.016688,-2.01887581
-0.016684,-2.018834774
-0.01668,-2.01879051
-0.016676,-2.018742989
-0.016672,-2.018692184
-0.016668,-2.018638073
-0.016664,-2.018580641
-0.01666,-2.018519876
-0.016656,-2.018455776
-0.016652,-2.018388343
-0.016648,-2.018317589
-0.016644,-2.018243536
-0.01664,-2.018166214
-0.016636,-2.018085668
-0.016632,-2.018001952
-0.016628,-2.017915137
-0.016624,-2.017825311
-0.01662,-2.017732578
-0.016616,-2.017637062
-0.016612,-2.017538908
-0.016608,-2.017438284
-0.016604,-2.017335379
-0.0166,-2.017230406
-0.016596,-2.017123604
-0.016592,-2.017015231
-0.016588,-2.01690557
-0.016584,-2.016794924
-0.01658,-2.016683613
-0.016576,-2.016571973
-0.016572,-2.016460355
-0.016568,-2.016349119
-0.016564,-2.016238628
-0.01656,-2.016129251
-0.016556,-2.016021354
-0.016552,-2.015915298
-0.016548,-2.015811436
-0.016544,-2.015710107
-0.01654,-2.015611638
-0.016536,-2.015516336
-0.016532,-2.015424489
-0.016528,-2.015336361
-0.016524,-2.015252194
-0.01652,-2.015172206
-0.016516,-2.015096585
-0.016512,-2.015025495
-0.016508,-2.014959073
-0.016504,-2.014897425
-0.0165,-2.014840633
-0.016496,-2.014788746
-0.016492,-2.014741787
-0.016488,-2.014699752
-0.016484,-2.014662606
-0.01648,-2.014630286
