Z-coordinate,Electric Potential,,,,,,,,,,,,,
0.005,-0.001699483,,,,,,,,,,,,,
0.005000833,-0.001698977,,,,,,,,,,,,,
0.005001667,-0.001698472,,,,,,,,,,,,,
0.0050025,-0.001697967,,,,,,,,,,,,,
0.005003333,-0.001697462,,,,,,,,,,,,,
0.005004167,-0.001696958,,,,,,,,,,,,,
0.005005,-0.001696454,,,,,,,,,,,,,"12,000 points plotted, bounds: 5 - 15, plotted on z-axis"
0.005005833,-0.00169595,,,,,,,,,,,,,
0.005006667,-0.001695446,,,,,,,,,,,,,
0.0050075,-0.001694943,,,,,,,,,,,,,
0.005008333,-0.00169444,,,,,,,,,,,,,
0.005009167,-0.001693937,,,,,,,,,,,,,
0.00501,-0.001693434,,,,,,,,,,,,,
0.005010833,-0.001692931,,,,,,,,,,,,,
0.005011667,-0.001692429,,,,,,,,,,,,,
0.0050125,-0.001691927,,,,,,,,,,,,,
0.005013333,-0.001691426,,,,,,,,,,,,,
0.005014167,-0.001690924,,,,,,,,,,,,,
0.005015,-0.001690423,,,,,,,,,,,,,
0.005015833,-0.001689922,,,,,,,,,,,,,
0.005016667,-0.001689421,,,,,,,,,,,,,
0.0050175,-0.001688921,,,,,,,,,,,,,
0.005018333,-0.001688421,,,,,,,,,,,,,
0.005019167,-0.001687921,,,,,,,,,,,,,
0.00502,-0.001687421,,,,,,,,,,,,,
0.005020833,-0.001686922,,,,,,,,,,,,,
0.005021667,-0.001686422,,,,,,,,,,,,,
0.0050225,-0.001685923,,,,,,,,,,,,,
0.005023333,-0.001685425,,,,,,,,,,,,,
0.005024167,-0.001684926,,,,,,,,,,,,,
0.005025,-0.001684428,,,,,,,,,,,,,
0.005025833,-0.00168393,,,,,,,,,,,,,
0.005026667,-0.001683432,,,,,,,,,,,,,
0.0050275,-0.001682935,,,,,,,,,,,,,
0.005028333,-0.001682438,,,,,,,,,,,,,
0.005029167,-0.001681941,,,,,,,,,,,,,
0.00503,-0.001681444,,,,,,,,,,,,,
0.005030833,-0.001680947,,,,,,,,,,,,,
0.005031667,-0.001680451,,,,,,,,,,,,,
0.0050325,-0.001679955,,,,,,,,,,,,,
0.005033333,-0.001679459,,,,,,,,,,,,,
0.005034167,-0.001678964,,,,,,,,,,,,,
0.005035,-0.001678468,,,,,,,,,,,,,
0.005035833,-0.001677973,,,,,,,,,,,,,
0.005036667,-0.001677479,,,,,,,,,,,,,
0.0050375,-0.001676984,,,,,,,,,,,,,
0.005038333,-0.00167649,,,,,,,,,,,,,
0.005039167,-0.001675996,,,,,,,,,,,,,
0.00504,-0.001675502,,,,,,,,,,,,,
0.005040833,-0.001675008,,,,,,,,,,,,,
0.005041667,-0.001674515,,,,,,,,,,,,,
0.0050425,-0.001674022,,,,,,,,,,,,,
0.005043333,-0.001673529,,,,,,,,,,,,,
0.005044167,-0.001673037,,,,,,,,,,,,,
0.005045,-0.001672544,,,,,,,,,,,,,
0.005045833,-0.001672052,,,,,,,,,,,,,
0.005046667,-0.00167156,,,,,,,,,,,,,
0.0050475,-0.001671069,,,,,,,,,,,,,
0.005048333,-0.001670577,,,,,,,,,,,,,
0.005049167,-0.001670086,,,,,,,,,,,,,
0.00505,-0.001669595,,,,,,,,,,,,,
0.005050833,-0.001669105,,,,,,,,,,,,,
0.005051667,-0.001668614,,,,,,,,,,,,,
0.0050525,-0.001668124,,,,,,,,,,,,,
0.005053333,-0.001667634,,,,,,,,,,,,,
0.005054167,-0.001667144,,,,,,,,,,,,,
0.005055,-0.001666655,,,,,,,,,,,,,
0.005055833,-0.001666166,,,,,,,,,,,,,
0.005056667,-0.001665677,,,,,,,,,,,,,
0.0050575,-0.001665188,,,,,,,,,,,,,
0.005058333,-0.0016647,,,,,,,,,,,,,
0.005059167,-0.001664211,,,,,,,,,,,,,
0.00506,-0.001663723,,,,,,,,,,,,,
0.005060833,-0.001663236,,,,,,,,,,,,,
0.005061667,-0.001662748,,,,,,,,,,,,,
0.0050625,-0.001662261,,,,,,,,,,,,,
0.005063333,-0.001661774,,,,,,,,,,,,,
0.005064167,-0.001661287,,,,,,,,,,,,,
0.005065,-0.0016608,,,,,,,,,,,,,
0.005065833,-0.001660314,,,,,,,,,,,,,
0.005066667,-0.001659828,,,,,,,,,,,,,
0.0050675,-0.001659342,,,,,,,,,,,,,
0.005068333,-0.001658857,,,,,,,,,,,,,
0.005069167,-0.001658371,,,,,,,,,,,,,
0.00507,-0.001657886,,,,,,,,,,,,,
0.005070833,-0.001657401,,,,,,,,,,,,,
0.005071667,-0.001656916,,,,,,,,,,,,,
0.0050725,-0.001656432,,,,,,,,,,,,,
0.005073333,-0.001655948,,,,,,,,,,,,,
0.005074167,-0.001655464,,,,,,,,,,,,,
0.005075,-0.00165498,,,,,,,,,,,,,
0.005075833,-0.001654497,,,,,,,,,,,,,
0.005076667,-0.001654013,,,,,,,,,,,,,
0.0050775,-0.00165353,,,,,,,,,,,,,
0.005078333,-0.001653048,,,,,,,,,,,,,
0.005079167,-0.001652565,,,,,,,,,,,,,
0.00508,-0.001652083,,,,,,,,,,,,,
0.005080833,-0.001651601,,,,,,,,,,,,,
0.005081667,-0.001651119,,,,,,,,,,,,,
0.0050825,-0.001650637,,,,,,,,,,,,,
0.005083333,-0.001650156,,,,,,,,,,,,,
0.005084167,-0.001649675,,,,,,,,,,,,,
0.005085,-0.001649194,,,,,,,,,,,,,
0.005085833,-0.001648713,,,,,,,,,,,,,
0.005086667,-0.001648233,,,,,,,,,,,,,
0.0050875,-0.001647753,,,,,,,,,,,,,
0.005088333,-0.001647273,,,,,,,,,,,,,
0.005089167,-0.001646793,,,,,,,,,,,,,
0.00509,-0.001646314,,,,,,,,,,,,,
0.005090833,-0.001645834,,,,,,,,,,,,,
0.005091667,-0.001645355,,,,,,,,,,,,,
0.0050925,-0.001644877,,,,,,,,,,,,,
0.005093333,-0.001644398,,,,,,,,,,,,,
0.005094167,-0.00164392,,,,,,,,,,,,,
0.005095,-0.001643442,,,,,,,,,,,,,
0.005095833,-0.001642964,,,,,,,,,,,,,
0.005096667,-0.001642486,,,,,,,,,,,,,
0.0050975,-0.001642009,,,,,,,,,,,,,
0.005098333,-0.001641532,,,,,,,,,,,,,
0.005099167,-0.001641055,,,,,,,,,,,,,
0.0051,-0.001640578,,,,,,,,,,,,,
0.005100833,-0.001640102,,,,,,,,,,,,,
0.005101667,-0.001639625,,,,,,,,,,,,,
0.0051025,-0.001639149,,,,,,,,,,,,,
0.005103333,-0.001638674,,,,,,,,,,,,,
0.005104167,-0.001638198,,,,,,,,,,,,,
0.005105,-0.001637723,,,,,,,,,,,,,
0.005105833,-0.001637248,,,,,,,,,,,,,
0.005106667,-0.001636773,,,,,,,,,,,,,
0.0051075,-0.001636298,,,,,,,,,,,,,
0.005108333,-0.001635824,,,,,,,,,,,,,
0.005109167,-0.00163535,,,,,,,,,,,,,
0.00511,-0.001634876,,,,,,,,,,,,,
0.005110833,-0.001634402,,,,,,,,,,,,,
0.005111667,-0.001633929,,,,,,,,,,,,,
0.0051125,-0.001633455,,,,,,,,,,,,,
0.005113333,-0.001632982,,,,,,,,,,,,,
0.005114167,-0.00163251,,,,,,,,,,,,,
0.005115,-0.001632037,,,,,,,,,,,,,
0.005115833,-0.001631565,,,,,,,,,,,,,
0.005116667,-0.001631093,,,,,,,,,,,,,
0.0051175,-0.001630621,,,,,,,,,,,,,
0.005118333,-0.001630149,,,,,,,,,,,,,
0.005119167,-0.001629678,,,,,,,,,,,,,
0.00512,-0.001629207,,,,,,,,,,,,,
0.005120833,-0.001628736,,,,,,,,,,,,,
0.005121667,-0.001628265,,,,,,,,,,,,,
0.0051225,-0.001627795,,,,,,,,,,,,,
0.005123333,-0.001627324,,,,,,,,,,,,,
0.005124167,-0.001626854,,,,,,,,,,,,,
0.005125,-0.001626384,,,,,,,,,,,,,
0.005125833,-0.001625915,,,,,,,,,,,,,
0.005126667,-0.001625446,,,,,,,,,,,,,
0.0051275,-0.001624976,,,,,,,,,,,,,
0.005128333,-0.001624507,,,,,,,,,,,,,
0.005129167,-0.001624039,,,,,,,,,,,,,
0.00513,-0.00162357,,,,,,,,,,,,,
0.005130833,-0.001623102,,,,,,,,,,,,,
0.005131667,-0.001622634,,,,,,,,,,,,,
0.0051325,-0.001622166,,,,,,,,,,,,,
0.005133333,-0.001621699,,,,,,,,,,,,,
0.005134167,-0.001621232,,,,,,,,,,,,,
0.005135,-0.001620764,,,,,,,,,,,,,
0.005135833,-0.001620298,,,,,,,,,,,,,
0.005136667,-0.001619831,,,,,,,,,,,,,
0.0051375,-0.001619365,,,,,,,,,,,,,
0.005138333,-0.001618898,,,,,,,,,,,,,
0.005139167,-0.001618432,,,,,,,,,,,,,
0.00514,-0.001617967,,,,,,,,,,,,,
0.005140833,-0.001617501,,,,,,,,,,,,,
0.005141667,-0.001617036,,,,,,,,,,,,,
0.0051425,-0.001616571,,,,,,,,,,,,,
0.005143333,-0.001616106,,,,,,,,,,,,,
0.005144167,-0.001615641,,,,,,,,,,,,,
0.005145,-0.001615177,,,,,,,,,,,,,
0.005145833,-0.001614713,,,,,,,,,,,,,
0.005146667,-0.001614249,,,,,,,,,,,,,
0.0051475,-0.001613785,,,,,,,,,,,,,
0.005148333,-0.001613322,,,,,,,,,,,,,
0.005149167,-0.001612858,,,,,,,,,,,,,
0.00515,-0.001612395,,,,,,,,,,,,,
0.005150833,-0.001611932,,,,,,,,,,,,,
0.005151667,-0.00161147,,,,,,,,,,,,,
0.0051525,-0.001611007,,,,,,,,,,,,,
0.005153333,-0.001610545,,,,,,,,,,,,,
0.005154167,-0.001610083,,,,,,,,,,,,,
0.005155,-0.001609622,,,,,,,,,,,,,
0.005155833,-0.00160916,,,,,,,,,,,,,
0.005156667,-0.001608699,,,,,,,,,,,,,
0.0051575,-0.001608238,,,,,,,,,,,,,
0.005158333,-0.001607777,,,,,,,,,,,,,
0.005159167,-0.001607316,,,,,,,,,,,,,
0.00516,-0.001606856,,,,,,,,,,,,,
0.005160833,-0.001606396,,,,,,,,,,,,,
0.005161667,-0.001605936,,,,,,,,,,,,,
0.0051625,-0.001605476,,,,,,,,,,,,,
0.005163333,-0.001605016,,,,,,,,,,,,,
0.005164167,-0.001604557,,,,,,,,,,,,,
0.005165,-0.001604098,,,,,,,,,,,,,
0.005165833,-0.001603639,,,,,,,,,,,,,
0.005166667,-0.00160318,,,,,,,,,,,,,
0.0051675,-0.001602722,,,,,,,,,,,,,
0.005168333,-0.001602264,,,,,,,,,,,,,
0.005169167,-0.001601806,,,,,,,,,,,,,
0.00517,-0.001601348,,,,,,,,,,,,,
0.005170833,-0.001600891,,,,,,,,,,,,,
0.005171667,-0.001600433,,,,,,,,,,,,,
0.0051725,-0.001599976,,,,,,,,,,,,,
0.005173333,-0.001599519,,,,,,,,,,,,,
0.005174167,-0.001599063,,,,,,,,,,,,,
0.005175,-0.001598606,,,,,,,,,,,,,
0.005175833,-0.00159815,,,,,,,,,,,,,
0.005176667,-0.001597694,,,,,,,,,,,,,
0.0051775,-0.001597238,,,,,,,,,,,,,
0.005178333,-0.001596782,,,,,,,,,,,,,
0.005179167,-0.001596327,,,,,,,,,,,,,
0.00518,-0.001595872,,,,,,,,,,,,,
0.005180833,-0.001595417,,,,,,,,,,,,,
0.005181667,-0.001594962,,,,,,,,,,,,,
0.0051825,-0.001594508,,,,,,,,,,,,,
0.005183333,-0.001594054,,,,,,,,,,,,,
0.005184167,-0.001593599,,,,,,,,,,,,,
0.005185,-0.001593146,,,,,,,,,,,,,
0.005185833,-0.001592692,,,,,,,,,,,,,
0.005186667,-0.001592239,,,,,,,,,,,,,
0.0051875,-0.001591785,,,,,,,,,,,,,
0.005188333,-0.001591332,,,,,,,,,,,,,
0.005189167,-0.00159088,,,,,,,,,,,,,
0.00519,-0.001590427,,,,,,,,,,,,,
0.005190833,-0.001589975,,,,,,,,,,,,,
0.005191667,-0.001589523,,,,,,,,,,,,,
0.0051925,-0.001589071,,,,,,,,,,,,,
0.005193333,-0.001588619,,,,,,,,,,,,,
0.005194167,-0.001588167,,,,,,,,,,,,,
0.005195,-0.001587716,,,,,,,,,,,,,
0.005195833,-0.001587265,,,,,,,,,,,,,
0.005196667,-0.001586814,,,,,,,,,,,,,
0.0051975,-0.001586364,,,,,,,,,,,,,
0.005198333,-0.001585913,,,,,,,,,,,,,
0.005199167,-0.001585463,,,,,,,,,,,,,
0.0052,-0.001585013,,,,,,,,,,,,,
0.005200833,-0.001584563,,,,,,,,,,,,,
0.005201667,-0.001584114,,,,,,,,,,,,,
0.0052025,-0.001583664,,,,,,,,,,,,,
0.005203333,-0.001583215,,,,,,,,,,,,,
0.005204167,-0.001582766,,,,,,,,,,,,,
0.005205,-0.001582318,,,,,,,,,,,,,
0.005205833,-0.001581869,,,,,,,,,,,,,
0.005206667,-0.001581421,,,,,,,,,,,,,
0.0052075,-0.001580973,,,,,,,,,,,,,
0.005208333,-0.001580525,,,,,,,,,,,,,
0.005209167,-0.001580077,,,,,,,,,,,,,
0.00521,-0.00157963,,,,,,,,,,,,,
0.005210833,-0.001579183,,,,,,,,,,,,,
0.005211667,-0.001578736,,,,,,,,,,,,,
0.0052125,-0.001578289,,,,,,,,,,,,,
0.005213333,-0.001577842,,,,,,,,,,,,,
0.005214167,-0.001577396,,,,,,,,,,,,,
0.005215,-0.00157695,,,,,,,,,,,,,
0.005215833,-0.001576504,,,,,,,,,,,,,
0.005216667,-0.001576058,,,,,,,,,,,,,
0.0052175,-0.001575613,,,,,,,,,,,,,
0.005218333,-0.001575167,,,,,,,,,,,,,
0.005219167,-0.001574722,,,,,,,,,,,,,
0.00522,-0.001574277,,,,,,,,,,,,,
0.005220833,-0.001573832,,,,,,,,,,,,,
0.005221667,-0.001573388,,,,,,,,,,,,,
0.0052225,-0.001572944,,,,,,,,,,,,,
0.005223333,-0.0015725,,,,,,,,,,,,,
0.005224167,-0.001572056,,,,,,,,,,,,,
0.005225,-0.001571612,,,,,,,,,,,,,
0.005225833,-0.001571169,,,,,,,,,,,,,
0.005226667,-0.001570726,,,,,,,,,,,,,
0.0052275,-0.001570282,,,,,,,,,,,,,
0.005228333,-0.00156984,,,,,,,,,,,,,
0.005229167,-0.001569397,,,,,,,,,,,,,
0.00523,-0.001568955,,,,,,,,,,,,,
0.005230833,-0.001568513,,,,,,,,,,,,,
0.005231667,-0.001568071,,,,,,,,,,,,,
0.0052325,-0.001567629,,,,,,,,,,,,,
0.005233333,-0.001567187,,,,,,,,,,,,,
0.005234167,-0.001566746,,,,,,,,,,,,,
0.005235,-0.001566305,,,,,,,,,,,,,
0.005235833,-0.001565864,,,,,,,,,,,,,
0.005236667,-0.001565423,,,,,,,,,,,,,
0.0052375,-0.001564983,,,,,,,,,,,,,
0.005238333,-0.001564542,,,,,,,,,,,,,
0.005239167,-0.001564102,,,,,,,,,,,,,
0.00524,-0.001563662,,,,,,,,,,,,,
0.005240833,-0.001563223,,,,,,,,,,,,,
0.005241667,-0.001562783,,,,,,,,,,,,,
0.0052425,-0.001562344,,,,,,,,,,,,,
0.005243333,-0.001561905,,,,,,,,,,,,,
0.005244167,-0.001561466,,,,,,,,,,,,,
0.005245,-0.001561027,,,,,,,,,,,,,
0.005245833,-0.001560589,,,,,,,,,,,,,
0.005246667,-0.00156015,,,,,,,,,,,,,
0.0052475,-0.001559712,,,,,,,,,,,,,
0.005248333,-0.001559275,,,,,,,,,,,,,
0.005249167,-0.001558837,,,,,,,,,,,,,
0.00525,-0.0015584,,,,,,,,,,,,,
0.005250833,-0.001557962,,,,,,,,,,,,,
0.005251667,-0.001557525,,,,,,,,,,,,,
0.0052525,-0.001557088,,,,,,,,,,,,,
0.005253333,-0.001556652,,,,,,,,,,,,,
0.005254167,-0.001556215,,,,,,,,,,,,,
0.005255,-0.001555779,,,,,,,,,,,,,
0.005255833,-0.001555343,,,,,,,,,,,,,
0.005256667,-0.001554907,,,,,,,,,,,,,
0.0052575,-0.001554472,,,,,,,,,,,,,
0.005258333,-0.001554036,,,,,,,,,,,,,
0.005259167,-0.001553601,,,,,,,,,,,,,
0.00526,-0.001553166,,,,,,,,,,,,,
0.005260833,-0.001552732,,,,,,,,,,,,,
0.005261667,-0.001552297,,,,,,,,,,,,,
0.0052625,-0.001551863,,,,,,,,,,,,,
0.005263333,-0.001551428,,,,,,,,,,,,,
0.005264167,-0.001550994,,,,,,,,,,,,,
0.005265,-0.001550561,,,,,,,,,,,,,
0.005265833,-0.001550127,,,,,,,,,,,,,
0.005266667,-0.001549694,,,,,,,,,,,,,
0.0052675,-0.001549261,,,,,,,,,,,,,
0.005268333,-0.001548828,,,,,,,,,,,,,
0.005269167,-0.001548395,,,,,,,,,,,,,
0.00527,-0.001547962,,,,,,,,,,,,,
0.005270833,-0.00154753,,,,,,,,,,,,,
0.005271667,-0.001547098,,,,,,,,,,,,,
0.0052725,-0.001546666,,,,,,,,,,,,,
0.005273333,-0.001546234,,,,,,,,,,,,,
0.005274167,-0.001545803,,,,,,,,,,,,,
0.005275,-0.001545371,,,,,,,,,,,,,
0.005275833,-0.00154494,,,,,,,,,,,,,
0.005276667,-0.001544509,,,,,,,,,,,,,
0.0052775,-0.001544079,,,,,,,,,,,,,
0.005278333,-0.001543648,,,,,,,,,,,,,
0.005279167,-0.001543218,,,,,,,,,,,,,
0.00528,-0.001542788,,,,,,,,,,,,,
0.005280833,-0.001542358,,,,,,,,,,,,,
0.005281667,-0.001541928,,,,,,,,,,,,,
0.0052825,-0.001541498,,,,,,,,,,,,,
0.005283333,-0.001541069,,,,,,,,,,,,,
0.005284167,-0.00154064,,,,,,,,,,,,,
0.005285,-0.001540211,,,,,,,,,,,,,
0.005285833,-0.001539782,,,,,,,,,,,,,
0.005286667,-0.001539354,,,,,,,,,,,,,
0.0052875,-0.001538925,,,,,,,,,,,,,
0.005288333,-0.001538497,,,,,,,,,,,,,
0.005289167,-0.001538069,,,,,,,,,,,,,
0.00529,-0.001537641,,,,,,,,,,,,,
0.005290833,-0.001537214,,,,,,,,,,,,,
0.005291667,-0.001536787,,,,,,,,,,,,,
0.0052925,-0.001536359,,,,,,,,,,,,,
0.005293333,-0.001535932,,,,,,,,,,,,,
0.005294167,-0.001535506,,,,,,,,,,,,,
0.005295,-0.001535079,,,,,,,,,,,,,
0.005295833,-0.001534653,,,,,,,,,,,,,
0.005296667,-0.001534227,,,,,,,,,,,,,
0.0052975,-0.001533801,,,,,,,,,,,,,
0.005298333,-0.001533375,,,,,,,,,,,,,
0.005299167,-0.001532949,,,,,,,,,,,,,
0.0053,-0.001532524,,,,,,,,,,,,,
0.005300833,-0.001532099,,,,,,,,,,,,,
0.005301667,-0.001531674,,,,,,,,,,,,,
0.0053025,-0.001531249,,,,,,,,,,,,,
0.005303333,-0.001530824,,,,,,,,,,,,,
0.005304167,-0.0015304,,,,,,,,,,,,,
0.005305,-0.001529976,,,,,,,,,,,,,
0.005305833,-0.001529552,,,,,,,,,,,,,
0.005306667,-0.001529128,,,,,,,,,,,,,
0.0053075,-0.001528704,,,,,,,,,,,,,
0.005308333,-0.001528281,,,,,,,,,,,,,
0.005309167,-0.001527858,,,,,,,,,,,,,
0.00531,-0.001527435,,,,,,,,,,,,,
0.005310833,-0.001527012,,,,,,,,,,,,,
0.005311667,-0.001526589,,,,,,,,,,,,,
0.0053125,-0.001526167,,,,,,,,,,,,,
0.005313333,-0.001525745,,,,,,,,,,,,,
0.005314167,-0.001525323,,,,,,,,,,,,,
0.005315,-0.001524901,,,,,,,,,,,,,
0.005315833,-0.001524479,,,,,,,,,,,,,
0.005316667,-0.001524058,,,,,,,,,,,,,
0.0053175,-0.001523636,,,,,,,,,,,,,
0.005318333,-0.001523215,,,,,,,,,,,,,
0.005319167,-0.001522795,,,,,,,,,,,,,
0.00532,-0.001522374,,,,,,,,,,,,,
0.005320833,-0.001521953,,,,,,,,,,,,,
0.005321667,-0.001521533,,,,,,,,,,,,,
0.0053225,-0.001521113,,,,,,,,,,,,,
0.005323333,-0.001520693,,,,,,,,,,,,,
0.005324167,-0.001520273,,,,,,,,,,,,,
0.005325,-0.001519854,,,,,,,,,,,,,
0.005325833,-0.001519435,,,,,,,,,,,,,
0.005326667,-0.001519015,,,,,,,,,,,,,
0.0053275,-0.001518596,,,,,,,,,,,,,
0.005328333,-0.001518178,,,,,,,,,,,,,
0.005329167,-0.001517759,,,,,,,,,,,,,
0.00533,-0.001517341,,,,,,,,,,,,,
0.005330833,-0.001516923,,,,,,,,,,,,,
0.005331667,-0.001516505,,,,,,,,,,,,,
0.0053325,-0.001516087,,,,,,,,,,,,,
0.005333333,-0.001515669,,,,,,,,,,,,,
0.005334167,-0.001515252,,,,,,,,,,,,,
0.005335,-0.001514835,,,,,,,,,,,,,
0.005335833,-0.001514418,,,,,,,,,,,,,
0.005336667,-0.001514001,,,,,,,,,,,,,
0.0053375,-0.001513584,,,,,,,,,,,,,
0.005338333,-0.001513168,,,,,,,,,,,,,
0.005339167,-0.001512751,,,,,,,,,,,,,
0.00534,-0.001512335,,,,,,,,,,,,,
0.005340833,-0.00151192,,,,,,,,,,,,,
0.005341667,-0.001511504,,,,,,,,,,,,,
0.0053425,-0.001511088,,,,,,,,,,,,,
0.005343333,-0.001510673,,,,,,,,,,,,,
0.005344167,-0.001510258,,,,,,,,,,,,,
0.005345,-0.001509843,,,,,,,,,,,,,
0.005345833,-0.001509428,,,,,,,,,,,,,
0.005346667,-0.001509014,,,,,,,,,,,,,
0.0053475,-0.001508599,,,,,,,,,,,,,
0.005348333,-0.001508185,,,,,,,,,,,,,
0.005349167,-0.001507771,,,,,,,,,,,,,
0.00535,-0.001507357,,,,,,,,,,,,,
0.005350833,-0.001506944,,,,,,,,,,,,,
0.005351667,-0.00150653,,,,,,,,,,,,,
0.0053525,-0.001506117,,,,,,,,,,,,,
0.005353333,-0.001505704,,,,,,,,,,,,,
0.005354167,-0.001505291,,,,,,,,,,,,,
0.005355,-0.001504879,,,,,,,,,,,,,
0.005355833,-0.001504466,,,,,,,,,,,,,
0.005356667,-0.001504054,,,,,,,,,,,,,
0.0053575,-0.001503642,,,,,,,,,,,,,
0.005358333,-0.00150323,,,,,,,,,,,,,
0.005359167,-0.001502818,,,,,,,,,,,,,
0.00536,-0.001502407,,,,,,,,,,,,,
0.005360833,-0.001501995,,,,,,,,,,,,,
0.005361667,-0.001501584,,,,,,,,,,,,,
0.0053625,-0.001501173,,,,,,,,,,,,,
0.005363333,-0.001500763,,,,,,,,,,,,,
0.005364167,-0.001500352,,,,,,,,,,,,,
0.005365,-0.001499942,,,,,,,,,,,,,
0.005365833,-0.001499531,,,,,,,,,,,,,
0.005366667,-0.001499121,,,,,,,,,,,,,
0.0053675,-0.001498712,,,,,,,,,,,,,
0.005368333,-0.001498302,,,,,,,,,,,,,
0.005369167,-0.001497892,,,,,,,,,,,,,
0.00537,-0.001497483,,,,,,,,,,,,,
0.005370833,-0.001497074,,,,,,,,,,,,,
0.005371667,-0.001496665,,,,,,,,,,,,,
0.0053725,-0.001496256,,,,,,,,,,,,,
0.005373333,-0.001495848,,,,,,,,,,,,,
0.005374167,-0.00149544,,,,,,,,,,,,,
0.005375,-0.001495031,,,,,,,,,,,,,
0.005375833,-0.001494623,,,,,,,,,,,,,
0.005376667,-0.001494216,,,,,,,,,,,,,
0.0053775,-0.001493808,,,,,,,,,,,,,
0.005378333,-0.001493401,,,,,,,,,,,,,
0.005379167,-0.001492993,,,,,,,,,,,,,
0.00538,-0.001492586,,,,,,,,,,,,,
0.005380833,-0.00149218,,,,,,,,,,,,,
0.005381667,-0.001491773,,,,,,,,,,,,,
0.0053825,-0.001491366,,,,,,,,,,,,,
0.005383333,-0.00149096,,,,,,,,,,,,,
0.005384167,-0.001490554,,,,,,,,,,,,,
0.005385,-0.001490148,,,,,,,,,,,,,
0.005385833,-0.001489742,,,,,,,,,,,,,
0.005386667,-0.001489337,,,,,,,,,,,,,
0.0053875,-0.001488931,,,,,,,,,,,,,
0.005388333,-0.001488526,,,,,,,,,,,,,
0.005389167,-0.001488121,,,,,,,,,,,,,
0.00539,-0.001487716,,,,,,,,,,,,,
0.005390833,-0.001487312,,,,,,,,,,,,,
0.005391667,-0.001486907,,,,,,,,,,,,,
0.0053925,-0.001486503,,,,,,,,,,,,,
0.005393333,-0.001486099,,,,,,,,,,,,,
0.005394167,-0.001485695,,,,,,,,,,,,,
0.005395,-0.001485291,,,,,,,,,,,,,
0.005395833,-0.001484888,,,,,,,,,,,,,
0.005396667,-0.001484484,,,,,,,,,,,,,
0.0053975,-0.001484081,,,,,,,,,,,,,
0.005398333,-0.001483678,,,,,,,,,,,,,
0.005399167,-0.001483275,,,,,,,,,,,,,
0.0054,-0.001482873,,,,,,,,,,,,,
0.005400833,-0.00148247,,,,,,,,,,,,,
0.005401667,-0.001482068,,,,,,,,,,,,,
0.0054025,-0.001481666,,,,,,,,,,,,,
0.005403333,-0.001481264,,,,,,,,,,,,,
0.005404167,-0.001480862,,,,,,,,,,,,,
0.005405,-0.00148046,,,,,,,,,,,,,
0.005405833,-0.001480059,,,,,,,,,,,,,
0.005406667,-0.001479658,,,,,,,,,,,,,
0.0054075,-0.001479257,,,,,,,,,,,,,
0.005408333,-0.001478856,,,,,,,,,,,,,
0.005409167,-0.001478455,,,,,,,,,,,,,
0.00541,-0.001478055,,,,,,,,,,,,,
0.005410833,-0.001477655,,,,,,,,,,,,,
0.005411667,-0.001477255,,,,,,,,,,,,,
0.0054125,-0.001476855,,,,,,,,,,,,,
0.005413333,-0.001476455,,,,,,,,,,,,,
0.005414167,-0.001476055,,,,,,,,,,,,,
0.005415,-0.001475656,,,,,,,,,,,,,
0.005415833,-0.001475257,,,,,,,,,,,,,
0.005416667,-0.001474858,,,,,,,,,,,,,
0.0054175,-0.001474459,,,,,,,,,,,,,
0.005418333,-0.00147406,,,,,,,,,,,,,
0.005419167,-0.001473662,,,,,,,,,,,,,
0.00542,-0.001473263,,,,,,,,,,,,,
0.005420833,-0.001472865,,,,,,,,,,,,,
0.005421667,-0.001472467,,,,,,,,,,,,,
0.0054225,-0.00147207,,,,,,,,,,,,,
0.005423333,-0.001471672,,,,,,,,,,,,,
0.005424167,-0.001471275,,,,,,,,,,,,,
0.005425,-0.001470877,,,,,,,,,,,,,
0.005425833,-0.00147048,,,,,,,,,,,,,
0.005426667,-0.001470083,,,,,,,,,,,,,
0.0054275,-0.001469687,,,,,,,,,,,,,
0.005428333,-0.00146929,,,,,,,,,,,,,
0.005429167,-0.001468894,,,,,,,,,,,,,
0.00543,-0.001468498,,,,,,,,,,,,,
0.005430833,-0.001468102,,,,,,,,,,,,,
0.005431667,-0.001467706,,,,,,,,,,,,,
0.0054325,-0.00146731,,,,,,,,,,,,,
0.005433333,-0.001466915,,,,,,,,,,,,,
0.005434167,-0.00146652,,,,,,,,,,,,,
0.005435,-0.001466124,,,,,,,,,,,,,
0.005435833,-0.00146573,,,,,,,,,,,,,
0.005436667,-0.001465335,,,,,,,,,,,,,
0.0054375,-0.00146494,,,,,,,,,,,,,
0.005438333,-0.001464546,,,,,,,,,,,,,
0.005439167,-0.001464152,,,,,,,,,,,,,
0.00544,-0.001463758,,,,,,,,,,,,,
0.005440833,-0.001463364,,,,,,,,,,,,,
0.005441667,-0.00146297,,,,,,,,,,,,,
0.0054425,-0.001462577,,,,,,,,,,,,,
0.005443333,-0.001462183,,,,,,,,,,,,,
0.005444167,-0.00146179,,,,,,,,,,,,,
0.005445,-0.001461397,,,,,,,,,,,,,
0.005445833,-0.001461004,,,,,,,,,,,,,
0.005446667,-0.001460612,,,,,,,,,,,,,
0.0054475,-0.001460219,,,,,,,,,,,,,
